2,-0.08,0.002,0.002,-0.482625483,0.002655029,98.6
4,-0.075,-0.045,-0.045,-0.530888031,0.001403809,98.59654594
6,-0.068,-0.03,-0.03,-0.434362934,0.006652832,98.59986898
8,-0.066,0.004,0.004,-0.627413127,0.003295898,98.5963665
10,-0.066,-0.041,-0.041,-0.579150579,0.019317627,98.59816196
12,-0.064,-0.069,-0.069,-0.675675676,-0.035095215,98.60066286
14,-0.061,-0.066,-0.066,-0.627413127,-0.05670166,98.59581176
16,-0.061,0.03,0.03,-0.627413127,0.175170898,98.59223423
18,-0.057,-0.033,-0.033,-0.579150579,0.161987305,98.58754078
20,-0.052,-0.027,-0.027,-0.434362934,-0.211029053,98.59062774
22,-0.048,0,0,-0.579150579,-0.643218994,98.5860992
24,-0.045,-0.003,-0.003,-0.482625483,0.182342529,98.58776101
26,-0.045,0.009,0.009,-0.530888031,0.747283936,98.58732134
28,-0.044,-0.09,-0.09,-0.579150579,0.050598145,98.5903513
30,-0.041,-0.064,-0.064,-0.530888031,-0.366455078,98.58893569
32,-0.038,-0.013,-0.013,-0.579150579,-0.726379395,98.58418903
34,-0.037,-0.034,-0.034,-0.530888031,-0.086273193,98.58137491
36,-0.038,-0.006,-0.006,-0.482625483,0.459533691,98.58348406
38,-0.04,-0.043,-0.043,-0.530888031,0.608612061,98.58397327
40,-0.039,0.041,0.041,-0.530888031,0.311340332,98.5876702
42,-0.037,0.015,0.015,-0.482625483,0.092773438,98.59005856
44,-0.038,-0.061,-0.061,-0.482625483,-0.436462402,98.58609086
46,-0.041,0.007,0.007,-0.530888031,-0.631011963,98.59080519
48,-0.044,0.056,0.056,-0.434362934,-0.477661133,98.59319232
50,-0.043,0.039,0.039,-0.482625483,-0.126525879,98.58833089
52,-0.045,-0.042,-0.042,-0.482625483,0.502075195,98.59012211
54,-0.041,-0.03,-0.03,-0.482625483,0.502258301,98.58997714
56,-0.037,0.032,0.032,-0.386100386,0.621673584,98.58532432
58,-0.03,0.009,0.009,-0.482625483,0.290466309,98.58146872
60,-0.026,-0.048,-0.048,-0.434362934,-0.193023682,98.57723497
62,-0.027,-0.053,-0.053,-0.386100386,-0.514678955,98.57831321
64,-0.028,0.028,0.028,-0.579150579,-0.502563477,98.57564787
66,-0.025,0.018,0.018,-0.337837838,-0.142852783,98.57206799
68,-0.015,-0.087,-0.087,-0.482625483,-0.106994629,98.57236972
70,-0.007,-0.018,-0.018,-0.434362934,0.240783691,98.57667273
72,0,-0.038,-0.038,-0.434362934,0.34866333,98.57784176
74,0.007,0,0,-0.386100386,0.199310303,98.57974068
76,0.011,-0.089,-0.089,-0.482625483,0.075317383,98.57708494
78,0.009,-0.064,-0.064,-0.386100386,-0.046020508,98.57415338
80,0.002,-0.009,-0.009,-0.579150579,-0.112335205,98.56952704
82,-0.001,-0.007,-0.007,-0.482625483,-0.088104248,98.57116069
84,-0.007,-0.065,-0.065,-0.530888031,-0.022583008,98.57123323
86,-0.018,-0.034,-0.034,-0.482625483,0.027648926,98.57109124
88,-0.028,-0.001,-0.001,-0.530888031,0.0284729,98.57470819
90,-0.034,-0.046,-0.046,-0.579150579,-0.003295898,98.57936334
92,-0.041,-0.049,-0.049,-0.482625483,-0.032409668,98.58196022
94,-0.046,-0.01,-0.01,-0.579150579,-0.039672852,98.57942701
96,-0.046,-0.01,-0.01,-0.530888031,-0.019439697,98.58118969
98,-0.045,0.003,0.003,-0.627413127,0.005706787,98.58378274
100,-0.046,-0.088,-0.088,-0.579150579,0.024017334,98.58464464
102,-0.047,-0.015,-0.015,-0.579150579,0.020965576,98.58786903
104,-0.046,0.049,0.049,-0.579150579,0.01449585,98.59213738
106,-0.046,0.154,0.154,-0.530888031,0.006103516,98.59351305
108,-0.047,0.23,0.23,-0.579150579,0.008392334,98.58870243
110,-0.044,0.338,0.338,-0.530888031,0.011901855,98.58554584
112,-0.042,0.16,0.16,-0.627413127,0.009033203,98.58081324
114,-0.045,0.016,0.016,-0.530888031,0.003112793,98.58516323
116,-0.045,-0.062,-0.062,-0.627413127,-0.003112793,98.5850079
118,-0.045,-0.131,-0.131,-0.530888031,-0.007873535,98.58795576
120,-0.044,-0.142,-0.142,-0.579150579,-0.005340576,98.58752411
122,-0.043,-0.128,-0.128,-0.579150579,-0.003295898,98.58746621
124,-0.042,-0.096,-0.096,-0.579150579,0.000823975,98.58672335
126,-0.037,-0.053,-0.053,-0.627413127,-0.000457764,98.59064107
128,-0.011,-0.065,-0.065,-0.530888031,-0.00189209,98.59438392
130,0.049,-0.066,-0.066,-0.530888031,-0.00112915,98.59571542
132,0.142,-0.048,-0.048,-0.530888031,0.00112915,98.59363821
134,0.234,-0.044,-0.044,-0.482625483,0.004364014,98.591555
136,0.247,-0.001,-0.001,-0.530888031,0.005340576,98.58901
138,0.165,-0.023,-0.023,-0.530888031,0.004364014,98.59105348
140,0.028,-0.032,-0.032,-0.482625483,0.001403809,98.5937996
142,-0.1,-0.029,-0.029,-0.434362934,0.00177002,98.59702613
144,-0.17,-0.016,-0.016,-0.530888031,0.004638672,98.60008803
146,-0.182,-0.009,-0.009,-0.434362934,0.005981445,98.59762574
148,-0.153,-0.022,-0.022,-0.482625483,0.0050354,98.60063074
150,-0.114,0.007,0.007,-0.530888031,0.000946045,98.60192782
152,-0.086,0.031,0.031,-0.434362934,-0.001586914,98.59924284
154,-0.066,0.014,0.014,-0.482625483,0.001312256,98.59805361
156,-0.055,-0.046,-0.046,-0.482625483,0.000366211,98.59758562
158,-0.045,0.003,0.003,-0.530888031,0.003814697,98.59759122
160,-0.043,0.016,0.016,-0.482625483,0.001312256,98.59799693
162,-0.035,0.011,0.011,-0.482625483,0.001586914,98.59644839
164,-0.03,-0.022,-0.022,-0.482625483,0.000823975,98.59436269
166,-0.033,-0.021,-0.021,-0.482625483,0.000549316,98.59639797
168,-0.034,0.013,0.013,-0.530888031,0.00177002,98.60073876
170,-0.03,-0.011,-0.011,-0.530888031,0.00579834,98.6016805
172,-0.025,0.009,0.009,-0.579150579,0.003295898,98.60261141
174,-0.02,-0.005,-0.005,-0.482625483,0.001708984,98.60499872
176,-0.025,0.071,0.071,-0.482625483,0.000762939,98.60372515
178,-0.024,0.054,0.054,-0.579150579,0,98.60325786
180,-0.021,0.009,0.009,-0.530888031,0.002838135,98.60335161
182,-0.017,0.047,0.047,-0.579150579,0.004058838,98.60763872
184,-0.01,0.016,0.016,-0.482625483,0.001403809,98.6071466
186,-0.007,0.003,0.003,-0.482625483,0.000183105,98.60852095
188,-0.006,0.025,0.025,-0.482625483,0.000366211,98.60811459
190,-0.003,0.034,0.034,-0.482625483,0.002166748,98.60865233
192,-0.001,0.013,0.013,-0.482625483,0.004638672,98.60406466
194,-0.004,0.007,0.007,-0.434362934,0.003601074,98.60708668
196,0,-0.041,-0.041,-0.579150579,0.000549316,98.6088018
198,0,-0.025,-0.025,-0.530888031,0,98.60580507
200,0,0.054,0.054,-0.579150579,0.000640869,98.60095094
202,0.002,0.006,0.006,-0.530888031,0.004364014,98.6035826
204,0.002,-0.043,-0.043,-0.530888031,0.00177002,98.60425771
206,0.005,-0.02,-0.02,-0.482625483,0.004577637,98.60579985
208,0.004,0.066,0.066,-0.530888031,-0.000244141,98.60714726
210,0.005,0.043,0.043,-0.530888031,-0.000244141,98.60949056
212,0.003,0.028,0.028,-0.482625483,-0.001403809,98.61336382
214,0.004,0.047,0.047,-0.530888031,0.000366211,98.61502291
216,0.005,0.068,0.068,-0.386100386,0.002075195,98.61122966
218,0.006,0.054,0.054,-0.530888031,0.007049561,98.61336702
220,0.005,-0.029,-0.029,-0.434362934,0.004364014,98.61283929
222,0.002,0.033,0.033,-0.482625483,0.002349854,98.61424911
224,0.002,0.015,0.015,-0.530888031,-0.000823975,98.61573807
226,0.001,0.027,0.027,-0.482625483,0.002471924,98.61752183
228,0.002,-0.04,-0.04,-0.530888031,0.002288818,98.6131101
230,0.001,0.007,0.007,-0.434362934,0.003997803,98.61034964
232,0.002,-0.009,-0.009,-0.627413127,0.000244141,98.60702945
234,0.006,-0.043,-0.043,-0.530888031,0.001220703,98.61131474
236,0.011,-0.052,-0.052,-0.482625483,0.002075195,98.61146705
238,0.007,0.003,0.003,-0.579150579,0.002166748,98.61320069
240,0.007,0.025,0.025,-0.482625483,0.003234863,98.61487869
242,0.007,0.014,0.014,-0.627413127,0.015716553,98.61069331
244,0.007,-0.017,-0.017,-0.482625483,-0.034698486,98.60794404
246,0.006,0.006,0.006,-0.530888031,0.001403809,98.60578593
248,0.007,-0.019,-0.019,-0.482625483,0.09942627,98.60992357
250,0.005,-0.04,-0.04,-0.482625483,0.068908691,98.60721459
252,-0.003,-0.01,-0.01,-0.579150579,-0.185180664,98.60470079
254,-0.008,-0.054,-0.054,-0.482625483,-0.303131104,98.6064637
256,-0.016,0.035,0.035,-0.530888031,0.337982178,98.6079486
258,-0.022,-0.039,-0.039,-0.579150579,0.38659668,98.60998537
260,-0.028,-0.017,-0.017,-0.434362934,-0.212280273,98.61335641
262,-0.028,0.013,0.013,-0.579150579,-0.380889893,98.61562936
264,-0.029,-0.016,-0.016,-0.434362934,-0.164276123,98.61082371
266,-0.035,-0.008,-0.008,-0.530888031,0.19052124,98.61166117
268,-0.038,-0.057,-0.057,-0.530888031,0.423217773,98.61586994
270,-0.035,-0.055,-0.055,-0.530888031,0.294372559,98.61178672
272,-0.032,-0.01,-0.01,-0.530888031,-0.071502686,98.61233233
274,-0.036,-0.035,-0.035,-0.482625483,-0.416931152,98.61664035
276,-0.033,-0.004,-0.004,-0.482625483,-0.435699463,98.61363488
278,-0.031,0,0,-0.434362934,-0.189575195,98.61388808
280,-0.027,0.039,0.039,-0.482625483,0.139312744,98.61015547
282,-0.027,0.03,0.03,-0.482625483,0.399200439,98.61264274
284,-0.026,-0.077,-0.077,-0.482625483,0.431518555,98.61078943
286,-0.026,-0.055,-0.055,-0.434362934,0.247192383,98.60766117
288,-0.025,0.027,0.027,-0.434362934,-0.046325684,98.61246512
290,-0.024,0.003,0.003,-0.386100386,-0.296264648,98.61459339
292,-0.026,-0.058,-0.058,-0.530888031,-0.37677002,98.61784989
294,-0.027,-0.018,-0.018,-0.530888031,-0.251556396,98.61968209
296,-0.025,0.011,0.011,-0.530888031,-0.03326416,98.62157611
298,-0.026,-0.053,-0.053,-0.579150579,0.156280518,98.62188487
300,-0.027,-0.049,-0.049,-0.530888031,0.217315674,98.61877341
302,-0.028,-0.007,-0.007,-0.530888031,0.157226563,98.61870356
304,-0.025,0.024,0.024,-0.530888031,0.052062988,98.61929896
306,-0.022,-0.019,-0.019,-0.482625483,-0.027526855,98.62258176
308,-0.02,-0.04,-0.04,-0.530888031,-0.048309326,98.61961045
310,-0.025,-0.026,-0.026,-0.434362934,-0.027526855,98.61988791
312,-0.026,-0.016,-0.016,-0.579150579,-0.004455566,98.62296602
314,-0.026,-0.043,-0.043,-0.434362934,-0.004760742,98.62151707
316,-0.032,-0.058,-0.058,-0.579150579,-0.016967773,98.62199462
318,-0.034,-0.007,-0.007,-0.482625483,-0.026184082,98.624169
320,-0.034,-0.039,-0.039,-0.627413127,-0.022003174,98.62119412
322,-0.039,-0.007,-0.007,-0.482625483,-0.00112915,98.62263169
324,-0.04,-0.098,-0.098,-0.627413127,0.013214111,98.61763258
326,-0.039,-0.075,-0.075,-0.482625483,0.018676758,98.61776435
328,-0.04,0.016,0.016,-0.579150579,0.013793945,98.61846264
330,-0.041,-0.043,-0.043,-0.530888031,0.007324219,98.61353301
332,-0.042,-0.043,-0.043,-0.482625483,0.007049561,98.61745773
334,-0.045,-0.045,-0.045,-0.482625483,0.007049561,98.62078967
336,-0.047,-0.025,-0.025,-0.482625483,0.011138916,98.62354132
338,-0.047,-0.052,-0.052,-0.530888031,0.007049561,98.62642268
340,-0.047,-0.065,-0.065,-0.530888031,0.001983643,98.62515898
342,-0.048,-0.033,-0.033,-0.530888031,-0.003814697,98.62168209
344,-0.048,-0.047,-0.047,-0.627413127,-0.001983643,98.6202047
346,-0.047,-0.011,-0.011,-0.530888031,-0.005340576,98.62165568
348,-0.047,-0.073,-0.073,-0.579150579,-0.000549316,98.62597504
350,-0.048,-0.023,-0.023,-0.530888031,0.001525879,98.62190825
352,-0.047,-0.042,-0.042,-0.482625483,-0.000183105,98.62429603
354,-0.047,-0.055,-0.055,-0.627413127,-0.000183105,98.61984871
356,-0.047,-0.066,-0.066,-0.530888031,-0.00100708,98.62242029
358,-0.047,-0.044,-0.044,-0.386100386,0.000183105,98.62205518
360,-0.046,-0.044,-0.044,-0.579150579,0.006103516,98.61750523
362,-0.047,-0.055,-0.055,-0.386100386,0.004638672,98.62092552
364,-0.05,-0.047,-0.047,-0.434362934,0.002746582,98.61757264
366,-0.05,-0.016,-0.016,-0.530888031,0.000762939,98.61372338
368,-0.051,0.009,0.009,-0.434362934,0.002166748,98.61143899
370,-0.051,-0.02,-0.02,-0.530888031,-0.001312256,98.60958285
372,-0.047,-0.036,-0.036,-0.482625483,0.003692627,98.61064375
374,-0.044,-0.023,-0.023,-0.482625483,-0.000823975,98.61241841
376,-0.049,-0.048,-0.048,-0.434362934,0.001525879,98.61729484
378,-0.057,-0.07,-0.07,-0.482625483,0.001708984,98.62222744
380,-0.053,-0.057,-0.057,-0.482625483,0.002929688,98.62480281
382,-0.048,-0.063,-0.063,-0.434362934,-6.10E-05,98.6225534
384,-0.047,0.002,0.002,-0.482625483,0.002929688,98.62709354
386,-0.051,-0.055,-0.055,-0.434362934,0.00112915,98.62620436
388,-0.056,-0.035,-0.035,-0.434362934,0.001525879,98.6233706
390,-0.056,-0.021,-0.021,-0.530888031,0.000823975,98.6246619
392,-0.056,-0.037,-0.037,-0.482625483,0.001220703,98.61981059
394,-0.057,-0.053,-0.053,-0.530888031,0.003601074,98.61524359
396,-0.056,-0.084,-0.084,-0.482625483,0.007324219,98.61204621
398,-0.056,-0.033,-0.033,-0.482625483,0.001983643,98.60905086
400,-0.056,-0.016,-0.016,-0.434362934,-0.000823975,98.61124443
402,-0.056,-0.017,-0.017,-0.482625483,6.10E-05,98.61067311
404,-0.056,-0.021,-0.021,-0.482625483,0.004577637,98.61412804
406,-0.057,0.009,0.009,-0.482625483,0.003997803,98.61302594
408,-0.055,0.012,0.012,-0.434362934,0.001525879,98.61640146
410,-0.057,-0.008,-0.008,-0.482625483,-0.002075195,98.61888565
412,-0.053,-0.066,-0.066,-0.482625483,-0.00189209,98.61972426
414,-0.048,-0.047,-0.047,-0.482625483,0.000457764,98.61632999
416,-0.047,-0.032,-0.032,-0.530888031,0.002288818,98.61661839
418,-0.044,-0.034,-0.034,-0.434362934,0.00100708,98.6162451
420,-0.044,-0.034,-0.034,-0.530888031,0.006164551,98.61504054
422,-0.044,-0.094,-0.094,-0.482625483,0.006469727,98.61097284
424,-0.042,0.002,0.002,-0.482625483,0.001983643,98.6085643
426,-0.035,-0.036,-0.036,-0.530888031,0,98.60692266
428,-0.028,-0.092,-0.092,-0.579150579,0.001220703,98.60567378
430,-0.021,-0.076,-0.076,-0.530888031,0.00100708,98.60213638
432,-0.01,-0.065,-0.065,-0.530888031,0.006561279,98.60030408
434,-0.01,-0.072,-0.072,-0.530888031,0.003875732,98.59811633
436,-0.02,-0.114,-0.114,-0.530888031,0.00189209,98.60131757
438,-0.029,-0.104,-0.104,-0.530888031,0.002838135,98.59973847
440,-0.036,0,0,-0.579150579,0.003692627,98.60345849
442,-0.042,-0.028,-0.028,-0.482625483,0.000457764,98.60113878
444,-0.047,-0.06,-0.06,-0.579150579,-0.000762939,98.6038931
446,-0.054,-0.04,-0.04,-0.530888031,-0.000946045,98.60498519
448,-0.064,-0.059,-0.059,-0.482625483,0.003234863,98.60016488
450,-0.069,-0.023,-0.023,-0.530888031,0.004364014,98.60217999
452,-0.069,-0.086,-0.086,-0.434362934,0.003295898,98.59733752
454,-0.066,-0.09,-0.09,-0.482625483,0.001983643,98.59917645
456,-0.069,-0.059,-0.059,-0.482625483,0.00112915,98.60295546
458,-0.072,-0.068,-0.068,-0.482625483,0.003601074,98.60227352
460,-0.073,-0.034,-0.034,-0.482625483,0.003234863,98.60358695
462,-0.07,0.115,0.115,-0.482625483,0.000457764,98.60444736
464,-0.07,0.228,0.228,-0.530888031,0.00177002,98.60172147
466,-0.072,0.332,0.332,-0.434362934,0.002166748,98.60456802
468,-0.072,0.196,0.196,-0.434362934,0.005126953,98.60244438
470,-0.072,0.043,0.043,-0.434362934,0.003051758,98.60668814
472,-0.072,-0.035,-0.035,-0.482625483,0.000640869,98.60467289
474,-0.073,-0.169,-0.169,-0.434362934,0.001586914,98.60503592
476,-0.072,-0.212,-0.212,-0.434362934,0.002075195,98.6033724
478,-0.072,-0.235,-0.235,-0.434362934,0.005981445,98.60074534
480,-0.073,-0.12,-0.12,-0.482625483,0.002532959,98.60119773
482,-0.067,-0.085,-0.085,-0.482625483,0.000183105,98.59727459
484,-0.053,-0.105,-0.105,-0.530888031,0.000823975,98.59364614
486,-0.001,-0.117,-0.117,-0.482625483,0.001312256,98.58959041
488,0.081,-0.026,-0.026,-0.579150579,0.001525879,98.58769925
490,0.183,-0.069,-0.069,-0.482625483,0.003112793,98.59082561
492,0.239,-0.09,-0.09,-0.579150579,0.002471924,98.59096119
494,0.198,-0.064,-0.064,-0.530888031,0.003112793,98.59462595
496,0.079,-0.056,-0.056,-0.530888031,0.000183105,98.59943083
498,-0.072,-0.038,-0.038,-0.530888031,0,98.59769735
500,-0.18,-0.1,-0.1,-0.530888031,0.003295898,98.59489352
502,-0.218,-0.052,-0.052,-0.530888031,0.004943848,98.59507576
504,-0.2,-0.004,-0.004,-0.530888031,0.002655029,98.59360582
506,-0.161,-0.007,-0.007,-0.530888031,0.002075195,98.59720059
508,-0.128,-0.085,-0.085,-0.530888031,0.001312256,98.5948008
510,-0.103,-0.067,-0.067,-0.579150579,0.002655029,98.59823801
512,-0.085,-0.02,-0.02,-0.579150579,0.002838135,98.59906602
514,-0.079,-0.045,-0.045,-0.579150579,0.003692627,98.60126008
516,-0.073,-0.096,-0.096,-0.579150579,0.000823975,98.59969531
518,-0.066,-0.015,-0.015,-0.627413127,0.000183105,98.59478805
520,-0.062,0.015,0.015,-0.675675676,-0.000244141,98.59171252
522,-0.062,-0.002,-0.002,-0.579150579,0,98.5917864
524,-0.064,-0.092,-0.092,-0.675675676,6.10E-05,98.58702882
526,-0.058,-0.066,-0.066,-0.579150579,0.003295898,98.58752923
528,-0.053,-0.027,-0.027,-0.627413127,0.002166748,98.58529107
530,-0.057,-0.044,-0.044,-0.579150579,0.003295898,98.58725348
532,-0.059,-0.017,-0.017,-0.482625483,0.002746582,98.59106701
534,-0.058,-0.007,-0.007,-0.530888031,0.00112915,98.58631382
536,-0.055,-0.026,-0.026,-0.482625483,0.00112915,98.58472589
538,-0.047,-0.036,-0.036,-0.530888031,0.003692627,98.58393995
540,-0.051,-0.043,-0.043,-0.482625483,0.00177002,98.57974006
542,-0.05,-0.057,-0.057,-0.530888031,0.001983643,98.5755336
544,-0.05,-0.008,-0.008,-0.482625483,-0.000244141,98.57125736
546,-0.047,0.027,0.027,-0.434362934,0.001983643,98.57526077
548,-0.044,-0.043,-0.043,-0.482625483,0.002288818,98.57995385
550,-0.041,-0.065,-0.065,-0.530888031,0.002655029,98.57886692
552,-0.037,-0.032,-0.032,-0.482625483,0.00112915,98.57700277
554,-0.032,-0.059,-0.059,-0.386100386,0.002838135,98.57753591
556,-0.032,-0.083,-0.083,-0.482625483,0.003234863,98.58045639
558,-0.032,-0.064,-0.064,-0.434362934,0.004180908,98.58343953
560,-0.034,0.034,0.034,-0.434362934,0.00177002,98.58707211
562,-0.034,0.015,0.015,-0.482625483,0.003875732,98.59005174
564,-0.032,-0.082,-0.082,-0.386100386,0.001708984,98.5851155
566,-0.032,-0.009,-0.009,-0.434362934,0.001220703,98.58931451
568,-0.034,-0.026,-0.026,-0.434362934,0.001312256,98.58449414
570,-0.033,0.001,0.001,-0.482625483,0.003692627,98.5797883
572,-0.031,-0.071,-0.071,-0.386100386,0.003234863,98.58190282
574,-0.033,-0.058,-0.058,-0.482625483,0.00177002,98.58228696
576,-0.034,0.025,0.025,-0.530888031,0.00112915,98.58253285
578,-0.034,-0.003,-0.003,-0.482625483,0.003509521,98.58255525
580,-0.032,-0.04,-0.04,-0.579150579,0.016967773,98.57821197
582,-0.034,-0.002,-0.002,-0.482625483,-0.02822876,98.57551238
584,-0.036,0.021,0.021,-0.579150579,-0.067016602,98.57168278
586,-0.034,0.006,0.006,-0.530888031,0.170318604,98.57658049
588,-0.032,-0.045,-0.045,-0.530888031,0.16784668,98.57228566
590,-0.032,-0.052,-0.052,-0.579150579,-0.180053711,98.56788589
592,-0.032,0.008,0.008,-0.482625483,-0.641235352,98.56950167
594,-0.029,-0.02,-0.02,-0.579150579,0.165802002,98.56794224
596,-0.024,-0.113,-0.113,-0.530888031,0.725036621,98.56422738
598,-0.024,-0.095,-0.095,-0.627413127,0.101074219,98.56559873
600,-0.027,-0.056,-0.056,-0.579150579,-0.354248047,98.56806361
602,-0.024,-0.075,-0.075,-0.627413127,-0.72555542,98.57111629
604,-0.025,-0.057,-0.057,-0.627413127,-0.121368408,98.56880656
606,-0.026,-0.091,-0.091,-0.675675676,0.445922852,98.56814636
608,-0.028,-0.037,-0.037,-0.627413127,0.615112305,98.56716442
610,-0.034,-0.007,-0.007,-0.627413127,0.310211182,98.56824585
612,-0.042,-0.038,-0.038,-0.579150579,0.104705811,98.57094672
614,-0.045,-0.045,-0.045,-0.627413127,-0.424438477,98.57535796
616,-0.053,-0.032,-0.032,-0.530888031,-0.609954834,98.57167261
618,-0.058,-0.077,-0.077,-0.482625483,-0.430847168,98.56922983
620,-0.062,-0.053,-0.053,-0.482625483,-0.073120117,98.56801294
622,-0.065,-0.064,-0.064,-0.530888031,0.305053711,98.5729503
624,-0.067,-0.029,-0.029,-0.530888031,0.578369141,98.57135981
626,-0.066,-0.064,-0.064,-0.530888031,0.563049316,98.57535533
628,-0.07,-0.037,-0.037,-0.579150579,0.254516602,98.57273015
630,-0.071,-0.038,-0.038,-0.530888031,-0.188446045,98.56993016
632,-0.068,0.008,0.008,-0.530888031,-0.496368408,98.57484092
634,-0.066,-0.024,-0.024,-0.530888031,-0.668121338,98.57935197
636,-0.062,-0.038,-0.038,-0.530888031,-0.191558838,98.58073414
638,-0.061,-0.049,-0.049,-0.434362934,-0.077056885,98.58077545
640,-0.061,-0.041,-0.041,-0.530888031,0.304962158,98.57935663
642,-0.062,-0.043,-0.043,-0.434362934,0.262054443,98.58204116
644,-0.06,-0.105,-0.105,-0.482625483,0.22277832,98.58488478
646,-0.057,-0.052,-0.052,-0.434362934,0.09753418,98.58017397
648,-0.054,-0.046,-0.046,-0.386100386,-0.044311523,98.57569838
650,-0.054,-0.037,-0.037,-0.434362934,-0.116210938,98.57393257
652,-0.055,-0.067,-0.067,-0.386100386,-0.09085083,98.57692943
654,-0.056,-0.062,-0.062,-0.386100386,-0.022369385,98.57823173
656,-0.053,-0.004,-0.004,-0.482625483,0.027832031,98.58305971
658,-0.052,-0.078,-0.078,-0.386100386,0.030212402,98.5796422
660,-0.052,-0.082,-0.082,-0.386100386,-0.00100708,98.58080897
662,-0.049,-0.074,-0.074,-0.434362934,-0.030883789,98.57889614
664,-0.049,-0.002,-0.002,-0.434362934,-0.039367676,98.57474692
666,-0.053,-0.031,-0.031,-0.434362934,-0.019897461,98.57851522
668,-0.056,-0.125,-0.125,-0.434362934,0.007049561,98.57942223
670,-0.06,-0.033,-0.033,-0.482625483,0.021057129,98.57745347
672,-0.06,-0.063,-0.063,-0.530888031,0.022125244,98.57413417
674,-0.063,-0.084,-0.084,-0.482625483,0.012084961,98.57253293
676,-0.064,-0.101,-0.101,-0.579150579,0.006866455,98.5682074
678,-0.064,-0.05,-0.05,-0.482625483,0.008575439,98.56974229
680,-0.063,-0.011,-0.011,-0.627413127,0.012268066,98.56718515
682,-0.064,-0.082,-0.082,-0.530888031,0.010925293,98.56976433
684,-0.067,-0.064,-0.064,-0.579150579,0.003997803,98.56775447
686,-0.069,-0.082,-0.082,-0.579150579,-0.003112793,98.56694263
688,-0.071,-0.045,-0.045,-0.579150579,-0.006469727,98.56250095
690,-0.072,-0.049,-0.049,-0.530888031,-0.004272461,98.55780951
692,-0.074,-0.063,-0.063,-0.627413127,-0.001403809,98.55467531
694,-0.078,-0.045,-0.045,-0.579150579,-0.001220703,98.55238437
696,-0.077,-0.074,-0.074,-0.627413127,0.001403809,98.5480468
698,-0.078,-0.031,-0.031,-0.579150579,-0.000823975,98.54638174
700,-0.077,-0.113,-0.113,-0.675675676,0.002288818,98.5418808
702,-0.077,-0.106,-0.106,-0.579150579,0.001708984,98.53789388
704,-0.077,-0.029,-0.029,-0.530888031,0.004180908,98.53361258
706,-0.078,-0.027,-0.027,-0.579150579,0.002349854,98.53765771
708,-0.078,-0.061,-0.061,-0.434362934,0.003417969,98.53577569
710,-0.078,-0.082,-0.082,-0.579150579,0.003814697,98.53669338
712,-0.078,-0.017,-0.017,-0.579150579,0.002166748,98.53546963
714,-0.077,-0.068,-0.068,-0.482625483,0.004180908,98.53998527
716,-0.078,-0.106,-0.106,-0.627413127,0.003601074,98.54240922
718,-0.076,-0.065,-0.065,-0.482625483,0.001220703,98.54628015
720,-0.077,-0.04,-0.04,-0.434362934,0.001312256,98.54726911
722,-0.077,-0.027,-0.027,-0.434362934,0.000549316,98.54916541
724,-0.077,-0.107,-0.107,-0.434362934,0.003509521,98.54807658
726,-0.077,-0.06,-0.06,-0.482625483,0.00177002,98.54530931
728,-0.077,-0.056,-0.056,-0.482625483,0.004577637,98.54162191
730,-0.077,-0.082,-0.082,-0.530888031,0.00100708,98.5383467
732,-0.078,-0.069,-0.069,-0.434362934,0.001586914,98.54273268
734,-0.078,-0.092,-0.092,-0.530888031,-0.002075195,98.5380775
736,-0.076,-0.004,-0.004,-0.386100386,0.00112915,98.54187307
738,-0.078,-0.052,-0.052,-0.434362934,0.003112793,98.54209634
740,-0.078,-0.089,-0.089,-0.434362934,0.001403809,98.54517881
742,-0.078,-0.1,-0.1,-0.482625483,0.002166748,98.54465461
744,-0.078,-0.044,-0.044,-0.337837838,0.003601074,98.54312
746,-0.076,-0.041,-0.041,-0.434362934,0.004180908,98.54569151
748,-0.076,-0.116,-0.116,-0.482625483,0.002075195,98.54429364
750,-0.078,-0.042,-0.042,-0.482625483,0.004455566,98.5448597
752,-0.076,-0.02,-0.02,-0.482625483,0.002471924,98.54874692
754,-0.074,-0.033,-0.033,-0.482625483,-0.000244141,98.55214856
756,-0.073,-0.093,-0.093,-0.482625483,-6.10E-05,98.54958883
758,-0.071,-0.085,-0.085,-0.530888031,-6.10E-05,98.54894501
760,-0.076,-0.04,-0.04,-0.386100386,0.002838135,98.55223054
762,-0.074,-0.039,-0.039,-0.530888031,0.004180908,98.54875757
764,-0.076,-0.094,-0.094,-0.434362934,0.006286621,98.55133711
766,-0.076,-0.024,-0.024,-0.530888031,0.001403809,98.5551022
768,-0.076,0.047,0.047,-0.530888031,0.003051758,98.55512343
770,-0.077,0.007,0.007,-0.482625483,0.000762939,98.5558261
772,-0.076,-0.059,-0.059,-0.627413127,-0.000244141,98.55934092
774,-0.068,-0.066,-0.066,-0.530888031,0.002838135,98.56418735
776,-0.064,-0.005,-0.005,-0.627413127,0.003875732,98.56708948
778,-0.063,-0.06,-0.06,-0.723938224,0.002746582,98.56559631
780,-0.064,-0.073,-0.073,-0.482625483,0.001586914,98.56561536
782,-0.064,-0.044,-0.044,-0.675675676,0.001312256,98.56316748
784,-0.063,-0.006,-0.006,-0.530888031,0.001220703,98.5632662
786,-0.058,-0.028,-0.028,-0.627413127,0.001525879,98.5590524
788,-0.05,-0.125,-0.125,-0.627413127,0.002349854,98.55461139
790,-0.044,-0.054,-0.054,-0.482625483,0.002838135,98.55596127
792,-0.037,-0.053,-0.053,-0.579150579,0.001220703,98.5571303
794,-0.032,-0.105,-0.105,-0.482625483,0.00177002,98.55294504
796,-0.031,-0.107,-0.107,-0.579150579,0.000823975,98.55404024
798,-0.032,-0.052,-0.052,-0.530888031,0.004638672,98.55448695
800,-0.037,-0.02,-0.02,-0.530888031,0.004577637,98.55804617
802,-0.045,-0.032,-0.032,-0.579150579,0.004364014,98.55947306
804,-0.056,-0.07,-0.07,-0.434362934,0.001403809,98.55718939
806,-0.064,-0.049,-0.049,-0.482625483,6.10E-05,98.5532569
808,-0.067,-0.073,-0.073,-0.434362934,0.002166748,98.54886203
810,-0.07,-0.099,-0.099,-0.434362934,0.003875732,98.55008086
812,-0.073,-0.07,-0.07,-0.482625483,0.013977051,98.55207156
814,-0.077,-0.102,-0.102,-0.482625483,-0.03012085,98.54982096
816,-0.079,-0.011,-0.011,-0.482625483,-0.005340576,98.54904065
818,-0.082,-0.049,-0.049,-0.386100386,0.097076416,98.54769888
820,-0.084,-0.064,-0.064,-0.482625483,0.074066162,98.54352047
822,-0.084,-0.048,-0.048,-0.434362934,-0.16885376,98.53921817
824,-0.083,0.031,0.031,-0.482625483,-0.317077637,98.53542706
826,-0.083,0.193,0.193,-0.434362934,0.310699463,98.53720559
828,-0.08,0.219,0.219,-0.434362934,0.39642334,98.53439496
830,-0.08,0.248,0.248,-0.386100386,-0.182220459,98.53176775
832,-0.082,0.126,0.126,-0.482625483,-0.38269043,98.5268541
834,-0.083,-0.01,-0.01,-0.434362934,-0.177825928,98.52912521
836,-0.082,-0.119,-0.119,-0.530888031,0.167327881,98.52973556
838,-0.082,-0.167,-0.167,-0.386100386,0.417510986,98.53025528
840,-0.082,-0.218,-0.218,-0.482625483,0.305419922,98.53267782
842,-0.084,-0.164,-0.164,-0.434362934,-0.049468994,98.53592415
844,-0.082,-0.149,-0.149,-0.530888031,-0.401550293,98.5348581
846,-0.074,-0.103,-0.103,-0.434362934,-0.441436768,98.53121753
848,-0.037,-0.072,-0.072,-0.482625483,-0.207763672,98.52817496
850,0.035,-0.072,-0.072,-0.482625483,0.124237061,98.53037796
852,0.139,-0.136,-0.136,-0.482625483,0.388336182,98.53207431
854,0.224,-0.08,-0.08,-0.482625483,0.432006836,98.5276728
856,0.217,-0.056,-0.056,-0.482625483,0.25680542,98.52651557
858,0.121,-0.089,-0.089,-0.530888031,-0.027069092,98.52642793
860,-0.028,-0.091,-0.091,-0.579150579,-0.2862854,98.52916955
862,-0.155,-0.036,-0.036,-0.579150579,-0.374603271,98.52564766
864,-0.215,-0.002,-0.002,-0.627413127,-0.262817383,98.525503
866,-0.222,-0.035,-0.035,-0.579150579,-0.044250488,98.52122135
868,-0.195,-0.057,-0.057,-0.627413127,0.147796631,98.52409578
870,-0.157,-0.052,-0.052,-0.579150579,0.219512939,98.5230331
872,-0.132,-0.057,-0.057,-0.579150579,0.16192627,98.52039472
874,-0.113,-0.077,-0.077,-0.530888031,0.057769775,98.51620039
876,-0.101,-0.049,-0.049,-0.579150579,-0.023834229,98.51199044
878,-0.093,-0.062,-0.062,-0.434362934,-0.04699707,98.51626473
880,-0.084,0.013,0.013,-0.579150579,-0.02935791,98.51331188
882,-0.078,-0.027,-0.027,-0.530888031,-0.007873535,98.51787769
884,-0.075,-0.048,-0.048,-0.579150579,-0.006561279,98.51627511
886,-0.076,-0.033,-0.033,-0.530888031,-0.016571045,98.52087477
888,-0.078,-0.037,-0.037,-0.482625483,-0.02923584,98.51930623
890,-0.072,-0.024,-0.024,-0.530888031,-0.021148682,98.51494046
892,-0.069,-0.085,-0.085,-0.434362934,-0.003295898,98.51606519
894,-0.072,-0.076,-0.076,-0.482625483,0.013793945,98.51662133
896,-0.07,-0.036,-0.036,-0.482625483,0.014373779,98.52068583
898,-0.067,-0.048,-0.048,-0.482625483,0.011810303,98.51769808
900,-0.065,-0.026,-0.026,-0.530888031,0.006347656,98.52057502
902,-0.061,-0.02,-0.02,-0.434362934,0.006744385,98.51905221
904,-0.057,-0.009,-0.009,-0.579150579,0.008636475,98.52377372
906,-0.06,-0.008,-0.008,-0.482625483,0.010375977,98.52713424
908,-0.061,-0.094,-0.094,-0.482625483,0.00579834,98.5292523
910,-0.061,-0.066,-0.066,-0.434362934,0.00177002,98.52640129
912,-0.058,-0.028,-0.028,-0.386100386,-0.001708984,98.52155577
914,-0.054,0.003,0.003,-0.482625483,-0.003051758,98.5186562
916,-0.051,-0.036,-0.036,-0.386100386,-0.002838135,98.51902089
918,-0.047,-0.016,-0.016,-0.530888031,0.00112915,98.51510547
920,-0.041,0.032,0.032,-0.434362934,-0.002655029,98.51864309
922,-0.042,-0.049,-0.049,-0.482625483,-0.001586914,98.5227516
924,-0.044,-0.08,-0.08,-0.530888031,0.000823975,98.52108885
926,-0.043,-0.018,-0.018,-0.386100386,0.00112915,98.52078028
928,-0.043,0.028,0.028,-0.434362934,0.005401611,98.51580925
930,-0.039,0.009,0.009,-0.579150579,0.004821777,98.51391833
932,-0.038,-0.024,-0.024,-0.434362934,0.002746582,98.51377056
934,-0.042,-0.001,-0.001,-0.482625483,0.000457764,98.51139221
936,-0.04,-0.016,-0.016,-0.482625483,0.003234863,98.51322333
938,-0.041,-0.032,-0.032,-0.386100386,0.003875732,98.51733519
940,-0.042,-0.015,-0.015,-0.482625483,0.006286621,98.5180402
942,-0.035,0.015,0.015,-0.386100386,0.003875732,98.51569298
944,-0.033,0.011,0.011,-0.579150579,0.000244141,98.5199777
946,-0.037,0.014,0.014,-0.482625483,6.10E-05,98.51562015
948,-0.039,-0.04,-0.04,-0.530888031,0.001312256,98.51688316
950,-0.038,-0.07,-0.07,-0.579150579,0.001403809,98.52136595
952,-0.034,-0.025,-0.025,-0.434362934,0.004180908,98.52152988
954,-0.027,-0.005,-0.005,-0.627413127,0.004638672,98.52609692
956,-0.028,-0.034,-0.034,-0.530888031,0.003112793,98.52381713
958,-0.025,-0.042,-0.042,-0.627413127,-0.000549316,98.52408703
960,-0.018,0.019,0.019,-0.579150579,0.000549316,98.52819896
962,-0.018,-0.028,-0.028,-0.530888031,-0.000640869,98.52534581
964,-0.019,-0.099,-0.099,-0.530888031,0.003051758,98.52861366
966,-0.022,-0.095,-0.095,-0.579150579,0.005584717,98.52499694
968,-0.025,0,0,-0.530888031,0.003234863,98.52437445
970,-0.029,-0.07,-0.07,-0.579150579,-0.000640869,98.52812728
972,-0.027,-0.077,-0.077,-0.530888031,0.001586914,98.5301704
974,-0.034,-0.065,-0.065,-0.579150579,0.004058838,98.53014063
976,-0.041,-0.026,-0.026,-0.434362934,0.005584717,98.53123659
978,-0.047,0.002,0.002,-0.579150579,0.00112915,98.52701488
980,-0.05,-0.035,-0.035,-0.530888031,0.000244141,98.52442921
982,-0.053,-0.078,-0.078,-0.482625483,-0.001983643,98.51968705
984,-0.054,0.027,0.027,-0.530888031,0.000946045,98.52315182
986,-0.057,-0.023,-0.023,-0.530888031,0.00100708,98.51830044
988,-0.062,-0.041,-0.041,-0.530888031,-0.000183105,98.5188046
990,-0.062,-0.066,-0.066,-0.434362934,0.00112915,98.51500132
992,-0.056,-0.031,-0.031,-0.530888031,0.001403809,98.51588081
994,-0.051,-0.028,-0.028,-0.434362934,0.001983643,98.51710292
996,-0.053,-0.068,-0.068,-0.530888031,0.003417969,98.51957309
998,-0.052,-0.068,-0.068,-0.434362934,0.002288818,98.51767237
1000,-0.054,0.016,0.016,-0.482625483,0.004364014,98.52183741
1002,-0.054,0.008,0.008,-0.482625483,0.004180908,98.52466007
1004,-0.053,-0.023,-0.023,-0.579150579,0.000823975,98.52067054
1006,-0.049,-0.023,-0.023,-0.530888031,0.000946045,98.51848159
1008,-0.047,-0.034,-0.034,-0.530888031,0.003601074,98.52255664
1010,-0.044,-0.005,-0.005,-0.482625483,0.005340576,98.51866751
1012,-0.042,-0.074,-0.074,-0.482625483,0.0050354,98.52156571
1014,-0.037,-0.07,-0.07,-0.530888031,-0.000183105,98.5175885
1016,-0.039,-0.023,-0.023,-0.530888031,-0.002349854,98.52026794
1018,-0.038,-0.001,-0.001,-0.434362934,-0.00177002,98.5218885
1020,-0.039,-0.034,-0.034,-0.482625483,0.001312256,98.52461948
1022,-0.037,-0.067,-0.067,-0.482625483,0.002532959,98.52893929
1024,-0.038,0.016,0.016,-0.434362934,0.002929688,98.52570813
1026,-0.039,-0.04,-0.04,-0.530888031,0.003295898,98.52091235
1028,-0.038,-0.1,-0.1,-0.482625483,0.001525879,98.52424874
1030,-0.038,-0.078,-0.078,-0.579150579,0.000946045,98.52398068
1032,-0.039,0.008,0.008,-0.627413127,0.002075195,98.52006714
1034,-0.042,-0.028,-0.028,-0.482625483,0.00112915,98.51595768
1036,-0.045,-0.052,-0.052,-0.675675676,0.004272461,98.51210898
1038,-0.044,-0.032,-0.032,-0.482625483,-0.000366211,98.50878871
1040,-0.044,0.01,0.01,-0.530888031,0.003997803,98.51351381
1042,-0.047,-0.044,-0.044,-0.482625483,0.002746582,98.51137385
1044,-0.056,-0.104,-0.104,-0.579150579,0.004364014,98.51236409
1046,-0.057,-0.029,-0.029,-0.482625483,0.00189209,98.51588618
1048,-0.056,-0.058,-0.058,-0.482625483,0.004180908,98.51333403
1050,-0.058,-0.045,-0.045,-0.530888031,0.00100708,98.51560571
1052,-0.057,-0.087,-0.087,-0.579150579,0.002075195,98.51461362
1054,-0.057,-0.035,-0.035,-0.530888031,0.000762939,98.51271962
1056,-0.057,0.002,0.002,-0.627413127,0.003875732,98.51425761
1058,-0.057,-0.058,-0.058,-0.627413127,0.003051758,98.51317587
1060,-0.058,-0.056,-0.056,-0.579150579,0.003601074,98.50936923
1062,-0.059,-0.083,-0.083,-0.579150579,0.001525879,98.51415461
1064,-0.062,-0.049,-0.049,-0.482625483,0.002166748,98.51433713
1066,-0.064,-0.062,-0.062,-0.579150579,0.000366211,98.51441481
1068,-0.063,-0.073,-0.073,-0.482625483,0.00189209,98.51266503
1070,-0.064,-0.024,-0.024,-0.482625483,0.002655029,98.50963775
1072,-0.065,-0.009,-0.009,-0.530888031,0.003692627,98.51326668
1074,-0.064,-0.009,-0.009,-0.482625483,0.002471924,98.51094536
1076,-0.064,-0.051,-0.051,-0.530888031,0.000366211,98.51133217
1078,-0.063,-0.084,-0.084,-0.482625483,-0.000457764,98.51184682
1080,-0.064,-0.059,-0.059,-0.482625483,0.002929688,98.51647939
1082,-0.064,-0.043,-0.043,-0.530888031,0.004577637,98.51417515
1084,-0.064,-0.06,-0.06,-0.337837838,0.003875732,98.51183233
1086,-0.064,-0.023,-0.023,-0.579150579,0.000640869,98.50993222
1088,-0.064,-0.034,-0.034,-0.337837838,0.001586914,98.5105052
1090,-0.064,-0.009,-0.009,-0.482625483,0.002349854,98.50928709
1092,-0.064,-0.083,-0.083,-0.434362934,0.00112915,98.50674474
1094,-0.064,-0.089,-0.089,-0.482625483,0.000640869,98.50850654
1096,-0.061,-0.043,-0.043,-0.434362934,0.002838135,98.50611948
1098,-0.058,-0.052,-0.052,-0.482625483,0.003601074,98.51073434
1100,-0.059,-0.04,-0.04,-0.482625483,0.001525879,98.51071011
1102,-0.062,-0.06,-0.06,-0.530888031,0.001708984,98.50998783
1104,-0.061,0.014,0.014,-0.434362934,6.10E-05,98.51066575
1106,-0.059,-0.022,-0.022,-0.627413127,0.000823975,98.51179614
1108,-0.058,-0.072,-0.072,-0.434362934,0.004577637,98.51486607
1110,-0.062,-0.055,-0.055,-0.530888031,0.00189209,98.5186739
1112,-0.063,-0.034,-0.034,-0.579150579,-0.000762939,98.51527369
1114,-0.065,-0.002,-0.002,-0.482625483,0.00112915,98.51116546
1116,-0.059,-0.07,-0.07,-0.627413127,0.001312256,98.5092968
1118,-0.058,-0.01,-0.01,-0.434362934,0.006164551,98.51037033
1120,-0.058,0.06,0.06,-0.579150579,0.001220703,98.50915771
1122,-0.058,0.005,0.005,-0.627413127,0.00100708,98.51341314
1124,-0.059,-0.064,-0.064,-0.482625483,0.00100708,98.50898328
1126,-0.054,-0.044,-0.044,-0.579150579,0.002746582,98.51392344
1128,-0.052,-0.009,-0.009,-0.530888031,0.002532959,98.51559302
1130,-0.046,-0.05,-0.05,-0.579150579,0.001312256,98.51676452
1132,-0.045,-0.08,-0.08,-0.579150579,0.00189209,98.51324337
1134,-0.044,-0.018,-0.018,-0.530888031,0.000457764,98.50853334
1136,-0.043,0.012,0.012,-0.530888031,0.001525879,98.50925804
1138,-0.039,-0.046,-0.046,-0.482625483,0.003601074,98.50455785
1140,-0.034,-0.048,-0.048,-0.530888031,0.00177002,98.50667319
1142,-0.027,-0.083,-0.083,-0.530888031,0.003997803,98.50381358
1144,-0.019,-0.044,-0.044,-0.482625483,0.001403809,98.50136545
1146,-0.01,-0.077,-0.077,-0.530888031,0.001586914,98.50595138
1148,-0.007,-0.1,-0.1,-0.530888031,0,98.50277028
1150,-0.01,-0.027,-0.027,-0.482625483,0.01373291,98.50575485
1152,-0.017,-0.049,-0.049,-0.579150579,-0.018371582,98.50115528
1154,-0.024,-0.056,-0.056,-0.434362934,-0.094604492,98.49924687
1156,-0.029,-0.037,-0.037,-0.530888031,0.156463623,98.50391779
1158,-0.035,-0.034,-0.034,-0.579150579,0.183746338,98.5015877
1160,-0.045,-0.004,-0.004,-0.434362934,-0.09954834,98.49780645
1162,-0.055,-0.05,-0.05,-0.579150579,-0.625305176,98.49888023
1164,-0.057,-0.111,-0.111,-0.434362934,0.094970703,98.50033375
1166,-0.057,-0.058,-0.058,-0.627413127,0.749389648,98.504078
1168,-0.058,-0.048,-0.048,-0.482625483,0.197479248,98.50805129
1170,-0.063,-0.056,-0.056,-0.482625483,-0.331939697,98.50358307
1172,-0.063,-0.079,-0.079,-0.579150579,-0.720581055,98.5061782
1174,-0.061,-0.044,-0.044,-0.482625483,-0.282348633,98.50976724
1176,-0.059,0.061,0.061,-0.530888031,0.402832031,98.50958447
1178,-0.062,0.125,0.125,-0.530888031,0.651733398,98.50533544
1180,-0.062,0.241,0.241,-0.579150579,0.330596924,98.50124265
1182,-0.061,0.297,0.297,-0.482625483,0.156097412,98.49824481
1184,-0.059,0.18,0.18,-0.482625483,-0.383239746,98.50102767
1186,-0.061,0.021,0.021,-0.579150579,-0.584014893,98.50010047
1188,-0.062,-0.07,-0.07,-0.530888031,-0.429901123,98.50337089
1190,-0.061,-0.139,-0.139,-0.530888031,-0.239440918,98.49985057
1192,-0.059,-0.132,-0.132,-0.482625483,0.26663208,98.50217971
1194,-0.064,-0.14,-0.14,-0.579150579,0.598968506,98.49867863
1196,-0.065,-0.133,-0.133,-0.482625483,0.597381592,98.50206293
1198,-0.065,-0.119,-0.119,-0.579150579,0.302185059,98.5025166
1200,-0.043,-0.083,-0.083,-0.530888031,-0.046417236,98.50712828
1202,0.019,-0.043,-0.043,-0.627413127,-0.47442627,98.50288324
1204,0.113,-0.123,-0.123,-0.530888031,-0.57989502,98.50722157
1206,0.213,-0.056,-0.056,-0.579150579,-0.330993652,98.50581581
1208,0.242,-0.054,-0.054,-0.627413127,-0.08493042,98.50148512
1210,0.169,-0.016,-0.016,-0.530888031,0.178985596,98.50614445
1212,0.03,-0.035,-0.035,-0.579150579,0.355407715,98.50763898
1214,-0.103,-0.036,-0.036,-0.530888031,0.245849609,98.50684515
1216,-0.179,-0.009,-0.009,-0.530888031,0.103637695,98.50780956
1218,-0.194,-0.031,-0.031,-0.482625483,-0.037078857,98.50628044
1220,-0.176,-0.088,-0.088,-0.482625483,-0.113464355,98.50345671
1222,-0.144,-0.082,-0.082,-0.482625483,-0.096679688,98.49883512
1224,-0.117,-0.03,-0.03,-0.530888031,-0.031158447,98.49536937
1226,-0.092,-0.035,-0.035,-0.579150579,0.022674561,98.4941032
1228,-0.076,-0.025,-0.025,-0.482625483,0.030578613,98.49787135
1230,-0.068,-0.064,-0.064,-0.530888031,0.003417969,98.49728283
1232,-0.064,-0.014,-0.014,-0.530888031,-0.032989502,98.49866053
1234,-0.056,0.022,0.022,-0.482625483,-0.041748047,98.49753859
1236,-0.046,-0.019,-0.019,-0.530888031,-0.024871826,98.50091055
1238,-0.042,0.003,0.003,-0.482625483,0.003051758,98.50357373
1240,-0.041,0.037,0.037,-0.530888031,0.019439697,98.49982957
1242,-0.041,-0.025,-0.025,-0.482625483,0.021362305,98.49575618
1244,-0.041,0.003,0.003,-0.482625483,0.013977051,98.49735936
1246,-0.042,-0.002,-0.002,-0.530888031,0.007507324,98.49613607
1248,-0.039,-0.001,-0.001,-0.482625483,0.008575439,98.49221399
1250,-0.035,-0.021,-0.021,-0.530888031,0.012390137,98.4934521
1252,-0.032,-0.063,-0.063,-0.530888031,0.010925293,98.49466811
1254,-0.03,-0.035,-0.035,-0.434362934,0.005218506,98.49878438
1256,-0.03,0.04,0.04,-0.434362934,-0.00112915,98.4998457
1258,-0.031,-0.025,-0.025,-0.482625483,-0.0050354,98.49969915
1260,-0.031,-0.035,-0.035,-0.434362934,-0.003295898,98.50046656
1262,-0.031,0.026,0.026,-0.530888031,-0.002075195,98.50528758
1264,-0.026,0.059,0.059,-0.530888031,-0.001403809,98.50547326
1266,-0.023,-0.022,-0.022,-0.530888031,-0.001312256,98.50396028
1268,-0.022,-0.028,-0.028,-0.530888031,-0.00177002,98.50878902
1270,-0.018,-0.041,-0.041,-0.530888031,0.000457764,98.51370912
1272,-0.017,0.024,0.024,-0.482625483,0.00189209,98.5176707
1274,-0.016,-0.022,-0.022,-0.627413127,0.003112793,98.5200865
1276,-0.012,-0.019,-0.019,-0.482625483,0.003417969,98.52173387
1278,-0.005,0.029,0.029,-0.530888031,0.00177002,98.52406749
1280,-0.005,0.04,0.04,-0.530888031,0.002929688,98.52342666
1282,-0.005,0.054,0.054,-0.530888031,0.003875732,98.52242298
1284,-0.006,-0.007,-0.007,-0.530888031,0.004058838,98.51960189
1286,-0.005,0.024,0.024,-0.482625483,0.003417969,98.52341819
1288,-0.005,0.051,0.051,-0.627413127,0.002746582,98.52783889
1290,-0.004,-0.015,-0.015,-0.530888031,-0.001586914,98.53232844
1292,-0.007,-0.016,-0.016,-0.482625483,0.00100708,98.52839286
1294,-0.008,-0.021,-0.021,-0.579150579,0.00189209,98.52397262
1296,-0.008,0.063,0.063,-0.482625483,0.003875732,98.52060986
1298,-0.007,-0.008,-0.008,-0.627413127,0.002349854,98.5208846
1300,-0.009,-0.043,-0.043,-0.530888031,0.000457764,98.51658208
1302,-0.008,-0.036,-0.036,-0.482625483,-0.000457764,98.51168353
1304,-0.007,0.042,0.042,-0.627413127,0.00189209,98.50760033
1306,-0.002,-0.002,-0.002,-0.434362934,0.000946045,98.50867468
1308,0.003,-0.035,-0.035,-0.482625483,0.002532959,98.50423554
1310,0.001,-0.029,-0.029,-0.627413127,0.001220703,98.50581654
1312,0,-0.026,-0.026,-0.530888031,0.002471924,98.50657474
1314,0.002,-0.016,-0.016,-0.530888031,0.002532959,98.5023131
1316,0,-0.019,-0.019,-0.482625483,0.002288818,98.49972879
1318,0.001,-0.04,-0.04,-0.482625483,0.003234863,98.49824074
1320,0.002,-0.034,-0.034,-0.434362934,0.003234863,98.49450813
1322,0,-0.014,-0.014,-0.530888031,0.003051758,98.49690221
1324,-0.002,-0.079,-0.079,-0.434362934,0.00189209,98.49635901
1326,-0.004,-0.021,-0.021,-0.482625483,0.000549316,98.49153513
1328,-0.014,0.021,0.021,-0.434362934,0.001220703,98.49335221
1330,-0.02,-0.005,-0.005,-0.482625483,-0.000244141,98.49716054
1332,-0.026,-0.039,-0.039,-0.434362934,0.003875732,98.49355875
1334,-0.026,-0.068,-0.068,-0.482625483,0.004272461,98.49666729
1336,-0.03,0.015,0.015,-0.530888031,0.002655029,98.49419588
1338,-0.037,-0.036,-0.036,-0.482625483,0.00112915,98.48943974
1340,-0.038,-0.032,-0.032,-0.482625483,0.003875732,98.48974698
1342,-0.037,0.011,0.011,-0.434362934,0.003997803,98.49409552
1344,-0.039,0.019,0.019,-0.627413127,0.002929688,98.49678881
1346,-0.036,-0.01,-0.01,-0.482625483,0.00177002,98.49583633
1348,-0.036,-0.066,-0.066,-0.579150579,0.001312256,98.49801444
1350,-0.037,-0.054,-0.054,-0.434362934,0.001586914,98.49782767
1352,-0.037,-0.015,-0.015,-0.627413127,0.001708984,98.49723943
1354,-0.028,-0.006,-0.006,-0.627413127,0.003875732,98.50166303
1356,-0.029,-0.026,-0.026,-0.434362934,0.005218506,98.50245082
1358,-0.029,-0.048,-0.048,-0.579150579,0.002532959,98.50528691
1360,-0.03,0.038,0.038,-0.530888031,-0.002349854,98.50743499
1362,-0.029,-0.017,-0.017,-0.579150579,-0.00112915,98.50385665
1364,-0.027,-0.023,-0.023,-0.627413127,0.000457764,98.50578583
1366,-0.024,-0.026,-0.026,-0.579150579,0.003295898,98.50472232
1368,-0.027,-0.03,-0.03,-0.530888031,0.004364014,98.501
1370,-0.028,-0.034,-0.034,-0.627413127,0.002471924,98.50240904
1372,-0.025,-0.023,-0.023,-0.530888031,0.003814697,98.50238413
1374,-0.026,-0.063,-0.063,-0.434362934,0.002349854,98.49802385
1376,-0.026,0.008,0.008,-0.530888031,0.000549316,98.49825923
1378,-0.026,0.006,0.006,-0.530888031,0.002166748,98.49640462
1380,-0.027,-0.024,-0.024,-0.579150579,0.003112793,98.49995354
1382,-0.027,-0.027,-0.027,-0.530888031,0.013031006,98.4950437
1384,-0.026,-0.032,-0.032,-0.530888031,-0.025939941,98.49206955
1386,-0.028,0.006,0.006,-0.579150579,-0.017028809,98.49587559
1388,-0.029,-0.055,-0.055,-0.530888031,0.094390869,98.49305609
1390,-0.034,-0.084,-0.084,-0.579150579,0.080871582,98.49123299
1392,-0.038,-0.047,-0.047,-0.579150579,-0.147033691,98.48967262
1394,-0.041,-0.031,-0.031,-0.579150579,-0.329956055,98.4926734
1396,-0.04,-0.058,-0.058,-0.627413127,0.282531738,98.49338424
1398,-0.039,-0.022,-0.022,-0.530888031,0.414825439,98.49651663
1400,-0.042,-0.033,-0.033,-0.675675676,-0.153045654,98.49237842
1402,-0.046,0.002,0.002,-0.530888031,-0.388580322,98.4892998
1404,-0.046,-0.042,-0.042,-0.482625483,-0.19052124,98.49059481
1406,-0.044,-0.042,-0.042,-0.482625483,0.148193359,98.48623345
1408,-0.045,-0.034,-0.034,-0.530888031,0.41809082,98.48866307
1410,-0.046,-0.052,-0.052,-0.530888031,0.319671631,98.48969705
1412,-0.048,-0.093,-0.093,-0.386100386,-0.025939941,98.49268149
1414,-0.05,-0.07,-0.07,-0.482625483,-0.390411377,98.48928744
1416,-0.054,-0.038,-0.038,-0.627413127,-0.449829102,98.49166674
1418,-0.053,-0.038,-0.038,-0.337837838,-0.223907471,98.49423714
1420,-0.049,-0.081,-0.081,-0.241312741,0.111083984,98.49805025
1422,-0.046,-0.016,-0.016,-0.337837838,0.381256104,98.49734267
1424,-0.049,0.011,0.011,-0.579150579,0.436645508,98.4942175
1426,-0.05,-0.001,-0.001,-0.482625483,0.271789551,98.49224781
1428,-0.05,-0.072,-0.072,-0.193050193,-0.016265869,98.49045538
1430,-0.049,-0.011,-0.011,-0.530888031,-0.276062012,98.48987545
1432,-0.049,0.003,0.003,-0.482625483,-0.378967285,98.4884943
1434,-0.05,-0.042,-0.042,-0.482625483,-0.271484375,98.4897503
1436,-0.05,-0.097,-0.097,-0.482625483,-0.053466797,98.49413857
1438,-0.053,-0.064,-0.064,-0.482625483,0.142547607,98.49200761
1440,-0.053,-0.035,-0.035,-0.530888031,0.219207764,98.4894536
1442,-0.052,-0.048,-0.048,-0.530888031,0.166015625,98.49366214
1444,-0.052,-0.087,-0.087,-0.627413127,0.063018799,98.49792431
1446,-0.047,-0.07,-0.07,-0.627413127,-0.020843506,98.49602372
1448,-0.049,-0.037,-0.037,-0.482625483,-0.047851563,98.49178847
1450,-0.049,-0.032,-0.032,-0.627413127,-0.031280518,98.49459725
1452,-0.048,-0.084,-0.084,-0.627413127,-0.0078125,98.4909047
1454,-0.048,-0.023,-0.023,-0.627413127,-0.006561279,98.49051952
1456,-0.052,0.006,0.006,-0.530888031,-0.017242432,98.48992121
1458,-0.057,0.011,0.011,-0.482625483,-0.027648926,98.49097123
1460,-0.055,-0.031,-0.031,-0.579150579,-0.022125244,98.48724144
1462,-0.052,-0.064,-0.064,-0.627413127,-0.002349854,98.48823188
1464,-0.052,0.036,0.036,-0.530888031,0.010559082,98.48455313
1466,-0.051,-0.021,-0.021,-0.627413127,0.016784668,98.4807065
1468,-0.049,-0.079,-0.079,-0.530888031,0.013519287,98.48011723
1470,-0.045,-0.046,-0.046,-0.675675676,0.007324219,98.47782823
1472,-0.049,0.006,0.006,-0.579150579,0.003997803,98.4822693
1474,-0.053,0.039,0.039,-0.579150579,0.00769043,98.48243573
1476,-0.048,0.015,0.015,-0.579150579,0.010375977,98.48188865
1478,-0.047,0.001,0.001,-0.530888031,0.005126953,98.47997453
1480,-0.046,0.053,0.053,-0.627413127,-0.002075195,98.4796705
1482,-0.047,-0.012,-0.012,-0.627413127,-0.001983643,98.48246494
1484,-0.041,-0.058,-0.058,-0.530888031,-0.002838135,98.47915306
1486,-0.036,-0.056,-0.056,-0.579150579,0.000183105,98.47437757
1488,-0.033,-0.036,-0.036,-0.579150579,0.000244141,98.47646487
1490,-0.036,0.004,0.004,-0.530888031,-0.001525879,98.47751636
1492,-0.036,-0.106,-0.106,-0.482625483,-0.002075195,98.47665316
1494,-0.028,-0.032,-0.032,-0.530888031,-0.001220703,98.48080087
1496,-0.017,-0.001,-0.001,-0.530888031,0.000640869,98.48057267
1498,-0.014,-0.053,-0.053,-0.434362934,0.007415771,98.48473489
1500,-0.007,-0.106,-0.106,-0.530888031,0.007049561,98.48470396
1502,-0.002,-0.09,-0.09,-0.482625483,0.003295898,98.48897949
1504,-0.005,-0.043,-0.043,-0.434362934,0.001525879,98.491016
1506,-0.014,-0.073,-0.073,-0.434362934,0.004272461,98.49296242
1508,-0.021,-0.111,-0.111,-0.386100386,0.003417969,98.48800836
1510,-0.028,-0.028,-0.028,-0.337837838,0.003997803,98.48841055
1512,-0.035,0.001,0.001,-0.386100386,0.001312256,98.48754026
1514,-0.042,-0.075,-0.075,-0.28957529,-0.000457764,98.48882156
1516,-0.047,-0.054,-0.054,-0.579150579,0.00189209,98.48925691
1518,-0.056,-0.101,-0.101,-0.434362934,0.002929688,98.48641689
1520,-0.064,-0.023,-0.023,-0.386100386,0.003875732,98.48693794
1522,-0.062,-0.072,-0.072,-0.482625483,0.004058838,98.49056543
1524,-0.058,-0.097,-0.097,-0.482625483,0.000640869,98.48561482
1526,-0.059,-0.016,-0.016,-0.482625483,0.000640869,98.48186566
1528,-0.063,-0.018,-0.018,-0.530888031,0.001220703,98.48461637
1530,-0.062,0.061,0.061,-0.579150579,0.002075195,98.47982024
1532,-0.059,0.113,0.113,-0.579150579,6.10E-05,98.47624656
1534,-0.059,0.237,0.237,-0.530888031,0.004455566,98.47445067
1536,-0.063,0.36,0.36,-0.627413127,0.003692627,98.47849817
1538,-0.061,0.208,0.208,-0.579150579,-0.000457764,98.47963973
1540,-0.059,0.027,0.027,-0.579150579,-0.000183105,98.47479871
1542,-0.062,-0.089,-0.089,-0.627413127,0.000244141,98.47291265
1544,-0.067,-0.162,-0.162,-0.579150579,0.002929688,98.46984037
1546,-0.066,-0.173,-0.173,-0.627413127,0.005218506,98.46759505
1548,-0.063,-0.182,-0.182,-0.530888031,0.000823975,98.46286215
1550,-0.058,-0.158,-0.158,-0.627413127,0.000946045,98.46616855
1552,-0.05,-0.079,-0.079,-0.723938224,0.005340576,98.46881134
1554,-0.023,-0.113,-0.113,-0.627413127,0.003814697,98.47102291
1556,0.027,-0.087,-0.087,-0.579150579,0.000366211,98.47425008
1558,0.115,-0.099,-0.099,-0.675675676,-0.000183105,98.47689552
1560,0.212,-0.052,-0.052,-0.627413127,-0.002166748,98.47310119
1562,0.258,-0.021,-0.021,-0.579150579,0.000823975,98.47194451
1564,0.199,-0.045,-0.045,-0.627413127,0.004058838,98.46722374
1566,0.066,-0.012,-0.012,-0.579150579,0.003417969,98.46223678
1568,-0.088,-0.006,-0.006,-0.675675676,0.005523682,98.45730676
1570,-0.189,-0.005,-0.005,-0.627413127,0.006469727,98.45398461
1572,-0.219,-0.046,-0.046,-0.579150579,0.004272461,98.45048896
1574,-0.196,-0.084,-0.084,-0.579150579,-0.000640869,98.4506439
1576,-0.152,-0.046,-0.046,-0.579150579,-0.000823975,98.44983273
1578,-0.115,0.003,0.003,-0.579150579,0.000762939,98.45077085
1580,-0.089,-0.066,-0.066,-0.530888031,0.004455566,98.44854066
1582,-0.08,-0.022,-0.022,-0.579150579,0.005218506,98.44946893
1584,-0.072,-0.001,-0.001,-0.482625483,0.002075195,98.45032034
1586,-0.063,0.012,0.012,-0.482625483,0.000366211,98.44653624
1588,-0.057,-0.064,-0.064,-0.434362934,-0.000946045,98.44232218
1590,-0.057,-0.071,-0.071,-0.434362934,-6.10E-05,98.43764284
1592,-0.058,-0.026,-0.026,-0.434362934,0.001312256,98.43432452
1594,-0.058,-0.044,-0.044,-0.482625483,0.000823975,98.43456623
1596,-0.052,-0.067,-0.067,-0.434362934,0.003509521,98.43797992
1598,-0.047,-0.053,-0.053,-0.337837838,0.002838135,98.43604404
1600,-0.049,-0.024,-0.024,-0.434362934,0.002746582,98.43295565
1602,-0.049,0.035,0.035,-0.434362934,0.000946045,98.42860684
1604,-0.05,-0.009,-0.009,-0.337837838,0.000823975,98.43306694
1606,-0.05,-0.051,-0.051,-0.530888031,0.001312256,98.4305146
1608,-0.047,0.05,0.05,-0.434362934,0.002075195,98.43176864
1610,-0.045,-0.028,-0.028,-0.434362934,0.000640869,98.42883538
1612,-0.044,-0.01,-0.01,-0.386100386,-0.000549316,98.42625281
1614,-0.04,-0.044,-0.044,-0.482625483,0.002075195,98.42868694
1616,-0.039,-0.006,-0.006,-0.434362934,0.004577637,98.42524697
1618,-0.037,-0.024,-0.024,-0.482625483,0.005584717,98.4284787
1620,-0.04,-0.002,-0.002,-0.434362934,0.000946045,98.42441855
1622,-0.038,-0.045,-0.045,-0.482625483,-0.000244141,98.42921653
1624,-0.035,-0.011,-0.011,-0.530888031,0.000762939,98.43074874
1626,-0.029,-0.023,-0.023,-0.530888031,0.000946045,98.42858988
1628,-0.028,-0.067,-0.067,-0.579150579,0.004821777,98.43226221
1630,-0.025,-0.007,-0.007,-0.579150579,0.001708984,98.42756361
1632,-0.023,0.051,0.051,-0.627413127,0.00112915,98.43017299
1634,-0.019,-0.03,-0.03,-0.579150579,0.000183105,98.43413476
1636,-0.017,-0.058,-0.058,-0.627413127,0.002655029,98.43532351
1638,-0.018,0.023,0.023,-0.627413127,0.00112915,98.43753096
1640,-0.018,0.046,0.046,-0.627413127,0.003692627,98.43716946
1642,-0.016,0.034,0.034,-0.627413127,0.004180908,98.43975833
1644,-0.017,0.005,0.005,-0.675675676,0.00100708,98.43482974
1646,-0.017,-0.022,-0.022,-0.579150579,0.001312256,98.4317646
1648,-0.018,0.039,0.039,-0.530888031,0.001525879,98.42767912
1650,-0.016,0.038,0.038,-0.627413127,0.001220703,98.42435845
1652,-0.019,-0.051,-0.051,-0.530888031,0.005340576,98.42878093
1654,-0.018,-0.06,-0.06,-0.627413127,0.001312256,98.43227525
1656,-0.017,-0.017,-0.017,-0.482625483,0.001312256,98.42864808
1658,-0.017,-0.029,-0.029,-0.627413127,-0.000762939,98.43025534
1660,-0.014,-0.034,-0.034,-0.579150579,0.003051758,98.42564023
1662,-0.008,-0.062,-0.062,-0.579150579,0.002929688,98.42212186
1664,-0.005,-0.037,-0.037,-0.579150579,0.001220703,98.4189695
1666,-0.005,-0.002,-0.002,-0.579150579,-0.000549316,98.42042312
1668,-0.005,-0.036,-0.036,-0.675675676,0.00189209,98.42398866
1670,-0.005,-0.091,-0.091,-0.579150579,0.001708984,98.42752241
1672,-0.009,-0.018,-0.018,-0.530888031,0.003509521,98.42746279
1674,-0.011,-0.075,-0.075,-0.627413127,0.003997803,98.43027157
1676,-0.017,-0.081,-0.081,-0.434362934,0.003692627,98.42801811
1678,-0.018,-0.101,-0.101,-0.530888031,0.001312256,98.4326919
1680,-0.023,-0.035,-0.035,-0.434362934,0.001708984,98.4375972
1682,-0.032,-0.006,-0.006,-0.386100386,-0.001220703,98.43344169
1684,-0.039,-0.096,-0.096,-0.386100386,0.001586914,98.43173962
1686,-0.042,-0.03,-0.03,-0.193050193,0.002929688,98.42942261
1688,-0.047,-0.032,-0.032,-0.386100386,0.003692627,98.42658184
1690,-0.05,-0.051,-0.051,-0.337837838,0.00177002,98.42925206
1692,-0.054,-0.097,-0.097,-0.386100386,0.001312256,98.4279026
1694,-0.057,-0.05,-0.05,-0.337837838,0.002655029,98.42444277
1696,-0.058,0.016,0.016,-0.434362934,0.001220703,98.42109299
1698,-0.06,-0.056,-0.056,-0.386100386,0.002929688,98.42502663
1700,-0.064,-0.036,-0.036,-0.434362934,0.000946045,98.42948453
1702,-0.064,-0.062,-0.062,-0.482625483,0.000946045,98.4296592
1704,-0.063,-0.021,-0.021,-0.482625483,0.000549316,98.42484294
1706,-0.065,-0.045,-0.045,-0.482625483,0.002929688,98.424036
1708,-0.064,-0.062,-0.062,-0.530888031,0.005340576,98.42025685
1710,-0.061,-0.026,-0.026,-0.579150579,0.003997803,98.42477533
1712,-0.058,-0.009,-0.009,-0.482625483,0.002288818,98.42247713
1714,-0.055,-0.014,-0.014,-0.627413127,0.002288818,98.42641366
1716,-0.052,-0.087,-0.087,-0.579150579,0.000640869,98.43036558
1718,-0.047,-0.049,-0.049,-0.627413127,0.000823975,98.4331209
1720,-0.046,0.011,0.011,-0.579150579,0.012573242,98.43720911
1722,-0.044,0.006,0.006,-0.579150579,-0.016967773,98.43237591
1724,-0.042,-0.068,-0.068,-0.627413127,-0.096008301,98.4369688
1726,-0.042,-0.02,-0.02,-0.579150579,0.155334473,98.43272133
1728,-0.042,-0.012,-0.012,-0.579150579,0.18270874,98.43057266
1730,-0.042,-0.005,-0.005,-0.482625483,-0.097839355,98.43045383
1732,-0.037,-0.047,-0.047,-0.579150579,-0.624542236,98.43515955
1734,-0.037,-0.065,-0.065,-0.579150579,0.091430664,98.43584068
1736,-0.036,-0.004,-0.004,-0.579150579,0.744995117,98.43358039
1738,-0.038,-0.054,-0.054,-0.579150579,0.199005127,98.42987122
1740,-0.04,-0.076,-0.076,-0.723938224,-0.332336426,98.42642314
1742,-0.04,-0.068,-0.068,-0.579150579,-0.720275879,98.42411126
1744,-0.041,0.005,0.005,-0.723938224,-0.2784729,98.42345015
1746,-0.044,-0.01,-0.01,-0.627413127,0.402709961,98.42240919
1748,-0.044,-0.094,-0.094,-0.627413127,0.64855957,98.42166165
1750,-0.044,-0.065,-0.065,-0.579150579,0.327178955,98.42280555
1752,-0.043,-0.054,-0.054,-0.627413127,0.155059814,98.4222736
1754,-0.046,-0.052,-0.052,-0.627413127,-0.381835938,98.41739383
1756,-0.046,-0.099,-0.099,-0.579150579,-0.579437256,98.41273654
1758,-0.046,-0.065,-0.065,-0.627413127,-0.388214111,98.41172425
1760,-0.047,-0.034,-0.034,-0.530888031,-0.313812256,98.41651875
1762,-0.054,-0.049,-0.049,-0.482625483,0.339111328,98.41694644
1764,-0.054,-0.087,-0.087,-0.579150579,0.516113281,98.42107031
1766,-0.048,-0.03,-0.03,-0.434362934,0.643981934,98.4193119
1768,-0.049,-0.023,-0.023,-0.530888031,0.206359863,98.41721706
1770,-0.053,-0.007,-0.007,-0.434362934,-0.016265869,98.4210068
1772,-0.054,-0.049,-0.049,-0.337837838,-0.623382568,98.42379824
1774,-0.055,-0.078,-0.078,-0.530888031,-0.442687988,98.42274236
1776,-0.056,-0.03,-0.03,-0.386100386,-0.484924316,98.42656562
1778,-0.058,-0.033,-0.033,-0.434362934,-0.011810303,98.42582231
1780,-0.059,-0.089,-0.089,-0.530888031,0.178588867,98.42548609
1782,-0.058,-0.089,-0.089,-0.482625483,0.314331055,98.4247354
1784,-0.059,-0.034,-0.034,-0.434362934,0.302185059,98.4242875
1786,-0.06,-0.069,-0.069,-0.434362934,0.076660156,98.42624175
1788,-0.059,-0.101,-0.101,-0.482625483,-0.039916992,98.42219753
1790,-0.058,-0.082,-0.082,-0.579150579,-0.099182129,98.42453213
1792,-0.059,-0.053,-0.053,-0.434362934,-0.092102051,98.42083231
1794,-0.059,-0.017,-0.017,-0.530888031,-0.033935547,98.42079759
1796,-0.058,-0.101,-0.101,-0.482625483,0.020080566,98.41839418
1798,-0.055,-0.024,-0.024,-0.434362934,0.029754639,98.41931084
1800,-0.052,-0.009,-0.009,-0.482625483,-0.000183105,98.41658703
1802,-0.058,-0.027,-0.027,-0.434362934,-0.029174805,98.4211382
1804,-0.057,-0.105,-0.105,-0.530888031,-0.040985107,98.4167683
1806,-0.057,-0.035,-0.035,-0.434362934,-0.020385742,98.41360077
1808,-0.057,0.002,0.002,-0.482625483,0.000457764,98.41484319
1810,-0.057,-0.042,-0.042,-0.579150579,0.01953125,98.41275725
1812,-0.058,-0.078,-0.078,-0.579150579,0.020294189,98.40912912
1814,-0.058,-0.081,-0.081,-0.627413127,0.014190674,98.40601846
1816,-0.057,-0.04,-0.04,-0.579150579,0.006103516,98.41058463
1818,-0.059,-0.025,-0.025,-0.675675676,0.00769043,98.40855076
1820,-0.059,-0.064,-0.064,-0.579150579,0.010375977,98.40592279
1822,-0.058,-0.058,-0.058,-0.434362934,0.010284424,98.40752436
1824,-0.057,-0.024,-0.024,-0.579150579,0.005706787,98.40256732
1826,-0.058,0.029,0.029,-0.530888031,-0.002655029,98.39834901
1828,-0.062,-0.061,-0.061,-0.579150579,-0.004821777,98.39644485
1830,-0.062,0.021,0.021,-0.675675676,-0.004638672,98.39368456
1832,-0.061,-0.016,-0.016,-0.627413127,-0.0050354,98.39563745
1834,-0.062,0.013,0.013,-0.723938224,-0.002532959,98.39763977
1836,-0.057,-0.02,-0.02,-0.627413127,-0.000549316,98.40115792
1838,-0.051,-0.017,-0.017,-0.627413127,0.00112915,98.40174852
1840,-0.047,-0.021,-0.021,-0.772200772,0.001403809,98.40245184
1842,-0.047,-0.009,-0.009,-0.579150579,0.001983643,98.40276105
1844,-0.046,-0.064,-0.064,-0.627413127,0.000366211,98.40634991
1846,-0.043,-0.06,-0.06,-0.530888031,0.003601074,98.40581337
1848,-0.039,0.005,0.005,-0.482625483,0.001983643,98.40464718
1850,-0.03,-0.075,-0.075,-0.482625483,0.002655029,98.40560077
1852,-0.019,-0.11,-0.11,-0.482625483,0.000946045,98.40365117
1854,-0.006,-0.042,-0.042,-0.530888031,0.003814697,98.39966225
1856,-0.004,-0.056,-0.056,-0.482625483,0.003814697,98.39838164
1858,-0.01,-0.039,-0.039,-0.386100386,0.003509521,98.39560319
1860,-0.02,-0.119,-0.119,-0.530888031,0.000183105,98.39703546
1862,-0.028,-0.041,-0.041,-0.434362934,0.000549316,98.39980202
1864,-0.034,-0.029,-0.029,-0.386100386,0.003417969,98.39910236
1866,-0.043,-0.041,-0.041,-0.530888031,0.003814697,98.40031298
1868,-0.047,-0.103,-0.103,-0.482625483,0.002166748,98.39810372
1870,-0.052,-0.039,-0.039,-0.434362934,0.000244141,98.3978842
1872,-0.061,-0.016,-0.016,-0.482625483,-0.000640869,98.39603162
1874,-0.067,-0.074,-0.074,-0.530888031,0.001983643,98.39930332
1876,-0.068,-0.106,-0.106,-0.530888031,0.003509521,98.40173493
1878,-0.066,-0.095,-0.095,-0.482625483,0.002929688,98.39817804
1880,-0.067,-0.041,-0.041,-0.579150579,0.001403809,98.39386069
1882,-0.072,-0.057,-0.057,-0.482625483,0.001525879,98.39418206
1884,-0.073,-0.023,-0.023,-0.579150579,0.002075195,98.39662161
1886,-0.07,0.169,0.169,-0.434362934,0.000823975,98.39997895
1888,-0.067,0.317,0.317,-0.482625483,0.004058838,98.40218558
1890,-0.066,0.316,0.316,-0.482625483,0.0050354,98.4060618
1892,-0.065,0.161,0.161,-0.482625483,0.002838135,98.40269034
1894,-0.066,-0.022,-0.022,-0.482625483,0.002655029,98.39970273
1896,-0.067,-0.046,-0.046,-0.530888031,-0.00100708,98.40352235
1898,-0.067,-0.199,-0.199,-0.530888031,0.00177002,98.40314194
1900,-0.066,-0.276,-0.276,-0.434362934,0.003051758,98.40001244
1902,-0.063,-0.162,-0.162,-0.482625483,0.00189209,98.40226126
1904,-0.057,-0.075,-0.075,-0.627413127,0.000457764,98.40609679
1906,-0.05,-0.07,-0.07,-0.530888031,6.10E-05,98.4090769
1908,-0.022,-0.078,-0.078,-0.579150579,-0.000183105,98.41250662
1910,0.041,-0.045,-0.045,-0.530888031,0.003051758,98.41288708
1912,0.14,-0.005,-0.005,-0.675675676,0.005126953,98.40998297
1914,0.238,-0.053,-0.053,-0.579150579,0.003814697,98.41028743
1916,0.252,-0.074,-0.074,-0.579150579,0,98.41372045
1918,0.164,-0.025,-0.025,-0.482625483,-0.00112915,98.41087386
1920,0.019,-0.032,-0.032,-0.579150579,-0.000640869,98.41304112
1922,-0.129,-0.013,-0.013,-0.482625483,0.001983643,98.4166678
1924,-0.208,-0.105,-0.105,-0.579150579,0.003875732,98.41638044
1926,-0.216,-0.028,-0.028,-0.530888031,0.004760742,98.41598548
1928,-0.177,0.006,0.006,-0.530888031,6.10E-05,98.42041076
1930,-0.134,-0.03,-0.03,-0.579150579,0.00100708,98.42169419
1932,-0.104,-0.095,-0.095,-0.675675676,-0.000823975,98.42475806
1934,-0.087,-0.047,-0.047,-0.627413127,-0.000244141,98.42377346
1936,-0.073,-0.025,-0.025,-0.482625483,0.003814697,98.4219874
1938,-0.065,-0.066,-0.066,-0.530888031,0.003875732,98.42077546
1940,-0.062,-0.092,-0.092,-0.675675676,0.004577637,98.42296516
1942,-0.061,-0.033,-0.033,-0.530888031,0.000183105,98.4198958
1944,-0.059,0.012,0.012,-0.482625483,0.000457764,98.41979567
1946,-0.056,-0.012,-0.012,-0.482625483,0.000457764,98.41600337
1948,-0.053,-0.044,-0.044,-0.482625483,0.003814697,98.41240257
1950,-0.049,-0.053,-0.053,-0.482625483,0.002349854,98.41687453
1952,-0.054,0.025,0.025,-0.627413127,0.011047363,98.41818396
1954,-0.05,-0.045,-0.045,-0.482625483,-0.020019531,98.41757052
1956,-0.049,-0.079,-0.079,-0.386100386,-0.028686523,98.41964813
1958,-0.049,-0.01,-0.01,-0.482625483,0.090667725,98.4199446
1960,-0.05,0.001,0.001,-0.482625483,0.091796875,98.42146887
1962,-0.05,-0.006,-0.006,-0.386100386,-0.115081787,98.42425071
1964,-0.05,-0.022,-0.022,-0.434362934,-0.339874268,98.42543089
1966,-0.049,0.007,0.007,-0.386100386,0.223724365,98.42545176
1968,-0.048,0.046,0.046,-0.482625483,0.436950684,98.42530549
1970,-0.046,-0.001,-0.001,-0.675675676,-0.086456299,98.42140698
1972,-0.043,-0.054,-0.054,-0.579150579,-0.39175415,98.42557248
1974,-0.041,-0.008,-0.008,-0.482625483,-0.219726563,98.42489867
1976,-0.038,0.043,0.043,-0.579150579,0.102294922,98.42416865
1978,-0.036,-0.018,-0.018,-0.530888031,0.404998779,98.41946151
1980,-0.034,-0.06,-0.06,-0.675675676,0.34463501,98.41956577
1982,-0.033,0.014,0.014,-0.772200772,0.019317627,98.4242028
1984,-0.028,0.011,0.011,-0.723938224,-0.363037109,98.42195631
1986,-0.022,0.036,0.036,-1.206563707,-0.459533691,98.42439042
1988,-0.022,-0.047,-0.047,-1.061776062,-0.256988525,98.42055845
1990,-0.021,0.023,0.023,-0.965250965,0.067596436,98.42325175
1992,-0.02,0.047,0.047,-0.579150579,0.36239624,98.42590895
1994,-0.023,-0.019,-0.019,-0.723938224,0.44152832,98.42631661
1996,-0.021,-0.048,-0.048,-0.627413127,0.297790527,98.42300979
1998,-0.021,-0.037,-0.037,-0.579150579,0.017730713,98.427311
2000,-0.018,0.007,0.007,-0.337837838,-0.25213623,98.42439308
2002,-0.015,-0.02,-0.02,-0.386100386,-0.374969482,98.41959069
2004,-0.017,-0.053,-0.053,-0.965250965,-0.289703369,98.4206068
2006,-0.018,0.008,0.008,0.048262548,-0.079528809,98.42168051
2008,-0.017,0.017,0.017,-1.496138996,0.124237061,98.42136906
2010,-0.018,-0.029,-0.029,-1.254826255,0.215209961,98.42233219
2012,-0.013,-0.059,-0.059,-1.11003861,0.176605225,98.42456678
2014,-0.005,-0.003,-0.003,-0.916988417,0.071502686,98.42364789
2016,-0.009,0.024,0.024,-0.772200772,-0.012756348,98.42462403
2018,-0.007,-0.008,-0.008,-0.868725869,-0.045074463,98.42388112
2020,-0.005,-0.031,-0.031,-0.916988417,-0.032409668,98.42009954
2022,-0.004,-0.081,-0.081,-0.82046332,-0.011810303,98.41859907
2024,-0.003,-0.004,-0.004,-0.965250965,-0.004272461,98.41906653
2026,-0.006,-0.037,-0.037,-1.013513514,-0.016204834,98.41533752
2028,-0.003,-0.087,-0.087,-0.965250965,-0.024200439,98.41115249
2030,-0.007,-0.076,-0.076,-1.11003861,-0.020782471,98.40904706
2032,-0.016,-0.042,-0.042,-1.061776062,-0.00579834,98.41081522
2034,-0.021,-0.033,-0.033,-1.061776062,0.00894165,98.41038564
2036,-0.024,-0.069,-0.069,-1.206563707,0.015319824,98.41037779
2038,-0.03,-0.081,-0.081,-1.11003861,0.01449585,98.40596258
2040,-0.036,-0.036,-0.036,-1.061776062,0.008270264,98.40169864
2042,-0.042,0.013,0.013,-0.965250965,0.00579834,98.4000774
2044,-0.045,-0.038,-0.038,-0.916988417,0.009155273,98.39843812
2046,-0.047,-0.025,-0.025,-0.965250965,0.0078125,98.40328771
2048,-0.046,0.034,0.034,-0.965250965,0.005340576,98.40580435
2050,-0.046,-0.04,-0.04,-0.916988417,0.000183105,98.40726966
2052,-0.048,-0.027,-0.027,-0.916988417,-0.001312256,98.41109832
2054,-0.046,-0.049,-0.049,-0.916988417,-0.002746582,98.41121721
2056,-0.046,-0.027,-0.027,-1.013513514,-0.002838135,98.40997924
2058,-0.046,-0.016,-0.016,-1.11003861,-0.000823975,98.41381686
2060,-0.047,-0.037,-0.037,-1.061776062,-0.004455566,98.41127448
2062,-0.047,-0.001,-0.001,-0.965250965,-0.002349854,98.40791452
2064,-0.045,0.042,0.042,-1.013513514,0.000549316,98.40950055
2066,-0.044,0.02,0.02,-0.965250965,0.001983643,98.40705674
2068,-0.041,-0.006,-0.006,-0.965250965,0.005340576,98.40363277
2070,-0.039,-0.065,-0.065,-1.013513514,0.004943848,98.40139883
2072,-0.035,-0.024,-0.024,-0.965250965,0.005340576,98.39938591
2074,-0.032,-0.005,-0.005,-0.916988417,0.002471924,98.39444496
2076,-0.032,-0.048,-0.048,-1.013513514,0.002655029,98.39173148
2078,-0.033,-0.048,-0.048,-0.916988417,0.004638672,98.39343265
2080,-0.032,0.03,0.03,-1.061776062,0.002929688,98.39824931
2082,-0.029,-0.046,-0.046,-1.013513514,0.003112793,98.3958108
2084,-0.028,-0.075,-0.075,-0.916988417,-0.00112915,98.39700253
2086,-0.027,-0.02,-0.02,-0.916988417,-0.000183105,98.40172082
2088,-0.025,-0.035,-0.035,-1.061776062,0.004058838,98.40164253
2090,-0.029,-0.017,-0.017,-0.965250965,0.004364014,98.3996528
2092,-0.033,-0.085,-0.085,-0.916988417,0.001983643,98.40062377
2094,-0.031,-0.069,-0.069,-0.916988417,0.000762939,98.4010576
2096,-0.027,-0.036,-0.036,-0.916988417,0.00112915,98.39735531
2098,-0.03,0.007,0.007,-0.965250965,0.000366211,98.3978775
2100,-0.031,-0.036,-0.036,-0.965250965,0.001220703,98.39436814
2102,-0.031,-0.016,-0.016,-1.013513514,0.003814697,98.39195363
2104,-0.033,0.021,0.021,-1.061776062,0.002929688,98.39224075
2106,-0.036,-0.054,-0.054,-1.013513514,0.004180908,98.39537452
2108,-0.038,-0.094,-0.094,-1.013513514,0.001220703,98.39755986
2110,-0.039,-0.025,-0.025,-0.965250965,-0.001220703,98.39756805
2112,-0.04,0.026,0.026,-0.965250965,0.002288818,98.40150787
2114,-0.044,-0.059,-0.059,-1.061776062,0.004943848,98.40601503
2116,-0.044,-0.034,-0.034,-0.916988417,0.003692627,98.40563859
2118,-0.044,-0.085,-0.085,-0.868725869,0.000366211,98.40351456
2120,-0.043,-0.04,-0.04,-0.916988417,6.10E-05,98.40777823
2122,-0.045,0.009,0.009,-0.916988417,0.002166748,98.40774151
2124,-0.046,-0.036,-0.036,-0.965250965,0.004638672,98.41151481
2126,-0.046,-0.048,-0.048,-0.916988417,0.003875732,98.40864719
2128,-0.045,-0.017,-0.017,-1.013513514,-0.001403809,98.40479121
2130,-0.047,-0.04,-0.04,-0.965250965,-0.000244141,98.40103436
2132,-0.047,-0.059,-0.059,-1.013513514,-0.001403809,98.40177539
2134,-0.045,-0.045,-0.045,-1.013513514,0.000946045,98.40143911
2136,-0.047,-0.052,-0.052,-0.916988417,0.00189209,98.4001795
2138,-0.045,-0.004,-0.004,-1.061776062,0.002349854,98.40272565
2140,-0.047,-0.05,-0.05,-0.916988417,0.004638672,98.40228167
2142,-0.047,-0.045,-0.045,-1.013513514,0.005584717,98.40434196
2144,-0.046,-0.006,-0.006,-0.965250965,0.003417969,98.40863704
2146,-0.047,-0.002,-0.002,-1.013513514,-0.000244141,98.41184169
2148,-0.047,-0.044,-0.044,-1.061776062,0.00100708,98.40724017
2150,-0.047,-0.066,-0.066,-0.965250965,0.003295898,98.41190205
2152,-0.047,-0.022,-0.022,-1.11003861,0.004455566,98.41578174
2154,-0.046,-0.035,-0.035,-1.013513514,0.001403809,98.41716947
2156,-0.046,-0.07,-0.07,-0.916988417,0.000823975,98.41227902
2158,-0.048,-0.037,-0.037,-0.965250965,0.003509521,98.4170516
2160,-0.047,0.006,0.006,-0.868725869,0.003417969,98.41590689
2162,-0.046,0.046,0.046,-1.11003861,0,98.41490347
2164,-0.047,-0.016,-0.016,-0.965250965,-0.003417969,98.41500635
2166,-0.047,-0.04,-0.04,-1.013513514,-0.002838135,98.41552266
2168,-0.044,0.019,0.019,-0.868725869,0.002838135,98.42011159
2170,-0.039,0.007,0.007,-1.013513514,0.006652832,98.42366561
2172,-0.034,-0.032,-0.032,-0.965250965,0.0050354,98.42343266
2174,-0.03,-0.02,-0.02,-1.013513514,0.004943848,98.42721082
2176,-0.031,0.032,0.032,-1.013513514,0.002471924,98.4261096
2178,-0.027,-0.061,-0.061,-0.965250965,0.000549316,98.42160122
2180,-0.028,-0.085,-0.085,-0.916988417,0.001220703,98.41967557
2182,-0.02,-0.049,-0.049,-1.013513514,0.001586914,98.41787766
2184,-0.006,-0.024,-0.024,-0.916988417,0.003234863,98.41749062
2186,0,-0.068,-0.068,-0.916988417,0.003295898,98.41737196
2188,0,-0.092,-0.092,-1.11003861,0.001586914,98.41943937
2190,-0.004,-0.089,-0.089,-0.965250965,0.001525879,98.41811234
2192,-0.01,-0.053,-0.053,-1.013513514,0.000762939,98.42252673
2194,-0.016,-0.069,-0.069,-1.013513514,0.002166748,98.42020861
2196,-0.019,-0.084,-0.084,-0.916988417,0.003112793,98.42266257
2198,-0.027,-0.044,-0.044,-1.061776062,0.005584717,98.4267533
2200,-0.038,-0.054,-0.054,-0.965250965,-6.10E-05,98.42759882
2202,-0.046,0.001,0.001,-0.916988417,0.00112915,98.43166386
2204,-0.052,-0.085,-0.085,-1.061776062,-6.10E-05,98.42723069
2206,-0.055,-0.039,-0.039,-0.965250965,0.000946045,98.42779805
2208,-0.053,-0.049,-0.049,-0.916988417,0.003814697,98.42282767
2210,-0.057,-0.002,-0.002,-1.013513514,0.001525879,98.41935923
2212,-0.062,-0.04,-0.04,-1.061776062,0.003601074,98.41843414
2214,-0.058,-0.054,-0.054,-1.061776062,0.003112793,98.4157686
2216,-0.057,0.064,0.064,-1.061776062,0.001586914,98.41612174
2218,-0.059,0.151,0.151,-1.061776062,0.003295898,98.4142378
2220,-0.054,0.203,0.203,-1.061776062,0.003295898,98.41632414
2222,-0.055,0.312,0.312,-0.916988417,0.003112793,98.41719475
2224,-0.06,0.239,0.239,-1.11003861,0.002288818,98.41458666
2226,-0.058,0.02,0.02,-0.965250965,0.00112915,98.41022725
2228,-0.058,-0.122,-0.122,-1.061776062,0.002349854,98.40526094
2230,-0.064,-0.139,-0.139,-0.965250965,0.004760742,98.40215167
2232,-0.063,-0.198,-0.198,-0.965250965,0.004272461,98.40206371
2234,-0.056,-0.144,-0.144,-1.061776062,0.00100708,98.4032284
2236,-0.053,-0.172,-0.172,-1.013513514,-0.000366211,98.39945616
2238,-0.051,-0.125,-0.125,-1.061776062,0.00177002,98.39578647
2240,-0.027,-0.077,-0.077,-0.965250965,0.002532959,98.39392828
2242,0.031,-0.022,-0.022,-1.013513514,0.004364014,98.38980683
2244,0.117,-0.067,-0.067,-0.965250965,0.001983643,98.38889477
2246,0.218,-0.025,-0.025,-1.013513514,0.00100708,98.38671796
2248,0.247,0.005,0.005,-1.061776062,0.001983643,98.38802386
2250,0.179,0.001,0.001,-0.965250965,0.002746582,98.38522141
2252,0.038,-0.032,-0.032,-1.11003861,0.002349854,98.38676395
2254,-0.105,-0.067,-0.067,-1.061776062,0.002075195,98.38369864
2256,-0.187,-0.02,-0.02,-1.061776062,0.002471924,98.37964464
2258,-0.205,-0.021,-0.021,-0.965250965,0.002929688,98.38382824
2260,-0.182,-0.062,-0.062,-1.061776062,0.00177002,98.38441063
2262,-0.144,-0.024,-0.024,-0.965250965,-0.000762939,98.38358705
2264,-0.109,-0.03,-0.03,-0.965250965,-6.10E-05,98.37969152
2266,-0.083,0.015,0.015,-0.916988417,0.004943848,98.38021896
2268,-0.071,-0.037,-0.037,-0.916988417,0.002929688,98.37633177
2270,-0.065,-0.053,-0.053,-1.061776062,0.002655029,98.37369199
2272,-0.059,-0.007,-0.007,-0.965250965,0.000823975,98.37007854
2274,-0.049,-0.012,-0.012,-0.916988417,-0.00100708,98.36836094
2276,-0.044,-0.046,-0.046,-0.916988417,0.001312256,98.36682536
2278,-0.044,-0.066,-0.066,-1.013513514,0.004180908,98.37111292
2280,-0.047,-0.018,-0.018,-0.916988417,0.0050354,98.37499609
2282,-0.042,0.004,0.004,-0.965250965,0.002838135,98.37789653
2284,-0.041,-0.022,-0.022,-0.965250965,0.000457764,98.37364124
2286,-0.041,0.007,0.007,-0.965250965,0.002349854,98.37283921
2288,-0.039,0.017,0.017,-0.965250965,0.001220703,98.37180645
2290,-0.036,-0.008,-0.008,-0.965250965,0.007995605,98.37093576
2292,-0.035,-0.016,-0.016,-0.965250965,-0.004821777,98.3756753
2294,-0.036,-0.004,-0.004,-0.965250965,-0.119018555,98.37305425
2296,-0.038,-0.004,-0.004,-1.061776062,0.135681152,98.36914002
2298,-0.037,0.04,0.04,-0.965250965,0.19644165,98.37214031
2300,-0.031,-0.046,-0.046,-0.868725869,-0.018554688,98.36758843
2302,-0.026,0.009,0.009,-0.965250965,-0.584777832,98.372188
2304,-0.026,0.062,0.062,-0.916988417,0.006164551,98.37520444
2306,-0.022,0.001,0.001,-1.061776062,0.718109131,98.3798104
2308,-0.017,-0.047,-0.047,-0.965250965,0.360870361,98.38246789
2310,-0.021,-0.041,-0.041,-0.965250965,-0.298553467,98.38355021
2312,-0.018,-0.006,-0.006,-0.965250965,-0.694519043,98.38844062
2314,-0.015,-0.021,-0.021,-0.965250965,-0.42590332,98.38906618
2316,-0.013,-0.052,-0.052,-1.061776062,0.355316162,98.38902506
2318,-0.01,0.029,0.029,-1.013513514,0.661071777,98.38655548
2320,-0.011,0.056,0.056,-1.061776062,0.352355957,98.38351509
2322,-0.006,0.006,0.006,-1.013513514,0.200714111,98.38344243
2324,-0.005,0.012,0.012,-1.061776062,-0.32144165,98.38555128
2326,-0.004,-0.036,-0.036,-1.11003861,-0.551025391,98.39042746
2328,-0.006,0.048,0.048,-1.013513514,-0.55847168,98.38877366
2330,-0.005,0.002,0.002,-0.965250965,-0.219909668,98.38597531
2332,-0.005,-0.045,-0.045,-1.11003861,0.130828857,98.38442812
2334,-0.006,0.006,0.006,-1.158301158,0.581542969,98.38034418
2336,-0.004,-0.007,-0.007,-1.013513514,0.65447998,98.38166019
2338,-0.004,0.006,0.006,-1.11003861,0.407196045,98.38044207
2340,-0.005,-0.05,-0.05,-0.965250965,-0.149139404,98.3843157
2342,-0.005,-0.041,-0.041,-1.061776062,-0.265869141,98.38358098
2344,-0.005,-0.018,-0.018,-0.965250965,-0.481964111,98.38748872
2346,-0.003,-0.009,-0.009,-0.916988417,-0.407012939,98.38473101
2348,-0.002,-0.064,-0.064,-0.916988417,-0.093322754,98.38770031
2350,-0.001,-0.049,-0.049,-0.868725869,0.207305908,98.39128312
2352,0,-0.021,-0.021,-0.916988417,0.262695313,98.39055408
2354,0.001,-0.001,-0.001,-0.916988417,0.307342529,98.39144268
2356,0,-0.078,-0.078,-0.916988417,0.132751465,98.38735967
2358,-0.004,-0.032,-0.032,-0.82046332,-0.023132324,98.3848655
2360,-0.008,0.021,0.021,-0.868725869,-0.105163574,98.38580322
2362,-0.008,-0.057,-0.057,-0.965250965,-0.101074219,98.38600901
2364,-0.01,-0.017,-0.017,-0.916988417,-0.041656494,98.39014955
2366,-0.017,-0.088,-0.088,-1.013513514,0.014099121,98.39178248
2368,-0.025,-0.027,-0.027,-0.868725869,0.031829834,98.391779
2370,-0.028,0.01,0.01,-0.965250965,0.004364014,98.39312703
2372,-0.036,-0.025,-0.025,-0.82046332,-0.024780273,98.38899064
2374,-0.042,-0.022,-0.022,-0.916988417,-0.039550781,98.38439871
2376,-0.045,0.004,0.004,-0.916988417,-0.024017334,98.38691435
2378,-0.045,-0.013,-0.013,-0.916988417,-0.000640869,98.38515191
2380,-0.046,-0.04,-0.04,-0.965250965,0.018768311,98.38081682
2382,-0.046,-0.04,-0.04,-0.965250965,0.022491455,98.38504939
2384,-0.046,-0.02,-0.02,-0.965250965,0.015899658,98.38059299
2386,-0.046,-0.023,-0.023,-0.916988417,0.010742188,98.37627242
2388,-0.047,-0.032,-0.032,-0.965250965,0.009979248,98.37700776
2390,-0.046,-0.07,-0.07,-1.013513514,0.009521484,98.37639975
2392,-0.043,0.038,0.038,-1.013513514,0.008575439,98.37167344
2394,-0.038,-0.046,-0.046,-1.013513514,0.003417969,98.36717043
2396,-0.038,-0.074,-0.074,-1.013513514,0.001220703,98.36455596
2398,-0.037,-0.005,-0.005,-1.013513514,-0.003875732,98.36082897
2400,-0.038,0.034,0.034,-1.061776062,-0.004364014,98.36213226
2402,-0.036,0.016,0.016,-0.965250965,-0.004364014,98.3618964
2404,-0.034,-0.017,-0.017,-1.11003861,-0.004577637,98.35799637
2406,-0.032,-0.048,-0.048,-1.013513514,-0.003051758,98.35735069
2408,-0.031,0.027,0.027,-1.061776062,0.002349854,98.36136947
2410,-0.032,-0.054,-0.054,-1.11003861,0.002288818,98.36202782
2412,-0.032,-0.088,-0.088,-1.061776062,0.00112915,98.36433425
2414,-0.031,-0.074,-0.074,-1.11003861,0.002471924,98.36914385
2416,-0.032,-0.038,-0.038,-1.013513514,0.003234863,98.37002594
2418,-0.032,-0.011,-0.011,-1.061776062,0.004943848,98.37005756
2420,-0.031,-0.033,-0.033,-1.061776062,0.004058838,98.37037349
2422,-0.031,-0.077,-0.077,-1.061776062,0.003814697,98.37143636
2424,-0.032,-0.018,-0.018,-1.061776062,0.00579834,98.37407954
2426,-0.034,-0.004,-0.004,-1.11003861,0.003112793,98.37508577
2428,-0.034,-0.056,-0.056,-1.11003861,0.003814697,98.37731163
2430,-0.034,-0.06,-0.06,-1.013513514,0.001403809,98.37666378
2432,-0.036,-0.001,-0.001,-1.013513514,0.000762939,98.37812903
2434,-0.039,-0.013,-0.013,-1.061776062,0.00189209,98.37489598
2436,-0.044,-0.039,-0.039,-1.061776062,0.001586914,98.37866074
2438,-0.043,-0.084,-0.084,-1.013513514,0.002746582,98.37617765
2440,-0.045,-0.043,-0.043,-1.013513514,0.000366211,98.37474249
2442,-0.047,-0.058,-0.058,-0.965250965,0.001525879,98.37277594
2444,-0.045,-0.079,-0.079,-1.013513514,0.005218506,98.37745354
2446,-0.047,-0.035,-0.035,-1.013513514,0.003997803,98.37437646
2448,-0.045,-0.03,-0.03,-0.965250965,0.001708984,98.3703551
2450,-0.047,-0.029,-0.029,-0.916988417,0.002532959,98.372293
2452,-0.046,-0.04,-0.04,-0.916988417,0.000946045,98.36825325
2454,-0.046,-0.087,-0.087,-0.772200772,0.00177002,98.36524711
2456,-0.046,0.019,0.019,-0.965250965,0.003234863,98.36631766
2458,-0.05,-0.069,-0.069,-0.772200772,0.003051758,98.36841477
2460,-0.051,-0.097,-0.097,-0.868725869,0.002166748,98.37232004
2462,-0.052,-0.015,-0.015,-0.868725869,0.002288818,98.37334646
2464,-0.049,0.013,0.013,-0.868725869,0.001403809,98.37697099
2466,-0.048,-0.046,-0.046,-0.965250965,0.002655029,98.37873056
2468,-0.049,-0.088,-0.088,-0.965250965,0.003234863,98.38158055
2470,-0.051,-0.087,-0.087,-1.013513514,0.005126953,98.38194703
2472,-0.049,-0.041,-0.041,-0.965250965,0.002288818,98.37699151
2474,-0.046,0,0,-1.061776062,0.000183105,98.37397762
2476,-0.048,-0.031,-0.031,-0.965250965,-0.00100708,98.37336486
2478,-0.051,-0.043,-0.043,-1.013513514,0.000549316,98.37394778
2480,-0.05,0.004,0.004,-1.013513514,0.00189209,98.37279907
2482,-0.046,-0.013,-0.013,-0.916988417,0.004760742,98.37426766
2484,-0.047,-0.095,-0.095,-1.061776062,0.002746582,98.3751244
2486,-0.047,-0.007,-0.007,-1.061776062,0.002075195,98.37778771
2488,-0.051,0.015,0.015,-0.965250965,0.000366211,98.37453406
2490,-0.051,-0.063,-0.063,-1.11003861,0.002655029,98.3745652
2492,-0.05,-0.053,-0.053,-1.013513514,0.003051758,98.37339195
2494,-0.051,-0.083,-0.083,-1.11003861,0.001403809,98.37816393
2496,-0.051,-0.025,-0.025,-1.11003861,0.001586914,98.38252477
2498,-0.051,0.007,0.007,-1.11003861,0.002838135,98.38645214
2500,-0.052,-0.037,-0.037,-1.158301158,0.001708984,98.38588744
2502,-0.05,-0.068,-0.068,-1.061776062,0.001525879,98.3884027
2504,-0.051,-0.032,-0.032,-1.11003861,0.004058838,98.39249673
2506,-0.048,-0.036,-0.036,-1.158301158,0.002166748,98.39122991
2508,-0.046,-0.074,-0.074,-1.061776062,0.000946045,98.38739282
2510,-0.047,-0.007,-0.007,-1.158301158,0.000457764,98.38764403
2512,-0.047,0.023,0.023,-1.061776062,0.000640869,98.38605528
2514,-0.046,-0.038,-0.038,-1.061776062,0.002838135,98.38954931
2516,-0.046,-0.048,-0.048,-1.013513514,0.002532959,98.38641162
2518,-0.046,0.017,0.017,-1.013513514,0.002655029,98.38349907
2520,-0.047,0.025,0.025,-1.11003861,0.000457764,98.38380338
2522,-0.046,0.043,0.043,-1.11003861,0.008087158,98.37964624
2524,-0.047,0.006,0.006,-1.158301158,-0.012756348,98.37705393
2526,-0.046,-0.024,-0.024,-1.158301158,-0.048706055,98.37839946
2528,-0.043,0.028,0.028,-1.013513514,0.084747314,98.37451022
2530,-0.036,-0.033,-0.033,-1.061776062,0.102111816,98.37558366
2532,-0.034,-0.072,-0.072,-1.061776062,-0.060150146,98.37948124
2534,-0.032,-0.072,-0.072,-0.965250965,-0.337097168,98.3793881
2536,-0.033,-0.038,-0.038,-0.916988417,0.120605469,98.37752317
2538,-0.028,0,0,-1.013513514,0.457763672,98.38014458
2540,-0.026,-0.051,-0.051,-1.013513514,0.007232666,98.38468984
2542,-0.016,-0.089,-0.089,-0.965250965,-0.389343262,98.38614868
2544,-0.005,0.014,0.014,-0.916988417,-0.258117676,98.38600187
2546,0.001,-0.057,-0.057,-0.916988417,0.048248291,98.38538369
2548,0,-0.06,-0.06,-0.916988417,0.380889893,98.38224751
2550,-0.004,-0.086,-0.086,-0.965250965,0.37020874,98.38167886
2552,-0.008,-0.056,-0.056,-0.965250965,0.072174072,98.38156005
2554,-0.015,0.001,0.001,-0.965250965,-0.320892334,98.38517137
2556,-0.023,-0.033,-0.033,-1.013513514,-0.464324951,98.38733593
2558,-0.032,-0.028,-0.028,-0.868725869,-0.295043945,98.38853925
2560,-0.042,0.016,0.016,-0.916988417,0.025421143,98.38443699
2562,-0.047,-0.009,-0.009,-0.916988417,0.327301025,98.38055461
2564,-0.053,-0.061,-0.061,-0.868725869,0.442687988,98.3813105
2566,-0.056,-0.051,-0.051,-0.916988417,0.326324463,98.38092707
2568,-0.06,-0.003,-0.003,-1.013513514,0.059387207,98.38138157
2570,-0.059,0.003,0.003,-0.965250965,-0.22354126,98.37676169
2572,-0.057,-0.041,-0.041,-1.013513514,-0.370849609,98.37755455
2574,-0.057,-0.071,-0.071,-0.965250965,-0.312805176,98.37884433
2576,-0.057,0.071,0.071,-1.061776062,-0.109741211,98.3786636
2578,-0.058,0.169,0.169,-1.013513514,0.100189209,98.37526887
2580,-0.057,0.212,0.212,-1.11003861,0.21005249,98.37781266
2582,-0.058,0.319,0.319,-1.158301158,0.187286377,98.38074762
2584,-0.056,0.155,0.155,-1.061776062,0.090087891,98.37866131
2586,-0.058,0.061,0.061,-1.254826255,-0.004943848,98.3787374
2588,-0.058,-0.087,-0.087,-1.061776062,-0.044616699,98.37611732
2590,-0.058,-0.181,-0.181,-1.158301158,-0.03604126,98.37304417
2592,-0.055,-0.141,-0.141,-1.206563707,-0.013214111,98.37613114
2594,-0.056,-0.162,-0.162,-1.061776062,-0.005218506,98.37179787
2596,-0.056,-0.167,-0.167,-1.11003861,-0.014373779,98.3687565
2598,-0.047,-0.135,-0.135,-1.013513514,-0.022949219,98.37350431
2600,-0.017,-0.038,-0.038,-1.061776062,-0.021606445,98.37425522
2602,0.05,-0.044,-0.044,-1.013513514,-0.010925293,98.37508735
2604,0.153,-0.107,-0.107,-1.11003861,0.007110596,98.37958757
2606,0.242,-0.026,-0.026,-1.013513514,0.01473999,98.37558796
2608,0.245,-0.015,-0.015,-1.061776062,0.0128479,98.3793753
2610,0.154,-0.037,-0.037,-0.965250965,0.00769043,98.38328981
2612,0.008,-0.076,-0.076,-1.013513514,0.007629395,98.38043018
2614,-0.127,-0.029,-0.029,-0.965250965,0.006561279,98.3770997
2616,-0.191,0.005,0.005,-1.061776062,0.007507324,98.37856096
2618,-0.192,-0.044,-0.044,-1.11003861,0.00692749,98.37536439
2620,-0.162,-0.082,-0.082,-1.013513514,0.002288818,98.37152989
2622,-0.127,-0.059,-0.059,-1.013513514,-0.00189209,98.37018323
2624,-0.097,-0.019,-0.019,-0.916988417,-0.002288818,98.36920698
2626,-0.077,-0.022,-0.022,-0.916988417,-0.002929688,98.36510508
2628,-0.064,-0.08,-0.08,-1.013513514,-0.000640869,98.36694276
2630,-0.053,-0.005,-0.005,-0.916988417,-0.000183105,98.3674117
2632,-0.048,0.023,0.023,-0.965250965,-0.000244141,98.37227129
2634,-0.046,-0.037,-0.037,-1.013513514,-0.00100708,98.36939879
2636,-0.041,-0.018,-0.018,-0.965250965,0.001586914,98.37358869
2638,-0.046,-0.055,-0.055,-0.868725869,0.002746582,98.37524031
2640,-0.047,0.043,0.043,-1.061776062,0.003051758,98.37767509
2642,-0.04,-0.025,-0.025,-0.965250965,0.002655029,98.37645967
2644,-0.039,-0.056,-0.056,-1.013513514,0.00189209,98.37620735
2646,-0.038,-0.005,-0.005,-1.061776062,0.001403809,98.37226997
2648,-0.037,0.057,0.057,-1.11003861,0.004943848,98.37610781
2650,-0.038,0.009,0.009,-1.013513514,0.000244141,98.37555884
2652,-0.037,-0.037,-0.037,-1.158301158,0.000457764,98.37724112
2654,-0.033,0.022,0.022,-1.061776062,0.000366211,98.37952328
2656,-0.031,0.036,0.036,-1.013513514,0.002532959,98.37737971
2658,-0.031,0.012,0.012,-1.061776062,0.003997803,98.37831658
2660,-0.031,-0.04,-0.04,-1.013513514,0.002929688,98.37702188
2662,-0.027,-0.008,-0.008,-1.061776062,0.001525879,98.37997826
2664,-0.025,0.03,0.03,-1.061776062,6.10E-05,98.37571361
2666,-0.021,0.014,0.014,-1.11003861,0.000640869,98.38064098
2668,-0.02,-0.056,-0.056,-1.158301158,0.002532959,98.38340128
2670,-0.019,0.011,0.011,-1.061776062,0.002929688,98.37847498
2672,-0.018,0.046,0.046,-1.061776062,0.001525879,98.38236446
2674,-0.013,-0.024,-0.024,-1.013513514,0.00112915,98.38600571
2676,-0.013,-0.014,-0.014,-1.013513514,0.002838135,98.38798165
2678,-0.013,-0.035,-0.035,-1.158301158,0.001312256,98.39183157
2680,-0.009,-0.002,-0.002,-1.013513514,0,98.39148802
2682,-0.005,0.045,0.045,-1.11003861,0.001312256,98.3902036
2684,-0.006,-0.021,-0.021,-1.013513514,0.003234863,98.38603382
2686,-0.007,0.034,0.034,-1.11003861,0.004272461,98.391006
2688,-0.012,0.072,0.072,-0.916988417,-0.003234863,98.3947043
2690,-0.013,0.048,0.048,-1.11003861,-0.000457764,98.38970501
2692,-0.012,0.015,0.015,-1.11003861,0.003051758,98.39150477
2694,-0.011,-0.028,-0.028,-1.11003861,0.004760742,98.39305357
2696,-0.011,-0.005,-0.005,-1.11003861,0.005584717,98.3921717
2698,-0.01,0.029,0.029,-1.11003861,0.00100708,98.39193539
2700,-0.007,-0.037,-0.037,-1.061776062,-0.002166748,98.3908181
2702,-0.007,-0.052,-0.052,-1.013513514,-0.000640869,98.39033867
2704,-0.005,0.025,0.025,-1.013513514,0.00177002,98.38560627
2706,-0.004,-0.016,-0.016,-1.061776062,0.002655029,98.38485913
2708,-0.002,-0.074,-0.074,-1.013513514,-0.000366211,98.38091718
2710,-0.001,-0.02,-0.02,-1.013513514,-0.000183105,98.3763483
2712,-0.001,0.027,0.027,-0.965250965,0.001983643,98.37690952
2714,0.001,0.021,0.021,-1.061776062,0.003295898,98.37802239
2716,0,-0.021,-0.021,-0.868725869,0.004455566,98.38041071
2718,0.001,-0.037,-0.037,-1.013513514,0.003601074,98.3779799
2720,0,0.024,0.024,-0.965250965,0.003417969,98.38024249
2722,-0.003,-0.022,-0.022,-1.013513514,0.003112793,98.38237502
2724,-0.005,-0.072,-0.072,-0.916988417,-0.002075195,98.38241267
2726,-0.015,-0.071,-0.071,-1.013513514,-0.002288818,98.38634036
2728,-0.019,0.007,0.007,-0.916988417,0.0050354,98.38913422
2730,-0.023,-0.046,-0.046,-0.868725869,0.006347656,98.38908282
2732,-0.028,-0.024,-0.024,-1.013513514,0.006103516,98.39169789
2734,-0.034,-0.05,-0.05,-0.82046332,0.001220703,98.39336834
2736,-0.039,-0.018,-0.018,-0.965250965,-0.001525879,98.39814946
2738,-0.039,-0.004,-0.004,-0.916988417,-0.001312256,98.39432017
2740,-0.038,-0.075,-0.075,-1.013513514,0.000946045,98.3980134
2742,-0.039,-0.018,-0.018,-0.965250965,0.004455566,98.39869195
2744,-0.038,-0.003,-0.003,-0.916988417,0.005706787,98.39489346
2746,-0.037,0.015,0.015,-1.061776062,0.002655029,98.39959676
2748,-0.037,-0.069,-0.069,-0.965250965,0.002838135,98.40299642
2750,-0.033,-0.007,-0.007,-1.013513514,0.002288818,98.39861959
2752,-0.036,0.032,0.032,-0.965250965,0.002166748,98.39640032
2754,-0.032,-0.005,-0.005,-1.013513514,0.002288818,98.39549662
2756,-0.029,-0.02,-0.02,-1.061776062,0.002288818,98.3967647
2758,-0.028,-0.017,-0.017,-0.965250965,0.001403809,98.40095573
2760,-0.027,-0.009,-0.009,-0.965250965,0,98.40010725
2762,-0.027,-0.016,-0.016,-1.254826255,-0.000640869,98.40222225
2764,-0.025,-0.012,-0.012,-1.013513514,0.002075195,98.406931
2766,-0.026,-0.031,-0.031,-0.965250965,0.004943848,98.40628572
2768,-0.025,0.02,0.02,-1.158301158,0.00177002,98.40763954
2770,-0.023,-0.02,-0.02,-1.11003861,0.001220703,98.41165509
2772,-0.023,-0.049,-0.049,-1.013513514,0.001525879,98.41537093
2774,-0.025,-0.06,-0.06,-0.965250965,0.001586914,98.41179809
2776,-0.024,-0.002,-0.002,-1.013513514,0.003814697,98.40880406
2778,-0.023,-0.041,-0.041,-1.061776062,0.003997803,98.41001334
2780,-0.024,-0.082,-0.082,-1.11003861,0.002838135,98.41276363
2782,-0.024,-0.053,-0.053,-0.916988417,0.002838135,98.41023174
2784,-0.028,-0.038,-0.038,-0.965250965,0.001403809,98.40892627
2786,-0.026,0.002,0.002,-0.916988417,0.002166748,98.40733724
2788,-0.029,-0.033,-0.033,-0.965250965,0.001312256,98.40690114
2790,-0.027,-0.05,-0.05,-1.013513514,0.001586914,98.40360937
2792,-0.03,0.016,0.016,-1.013513514,0.003509521,98.40606543
2794,-0.034,-0.026,-0.026,-1.013513514,0.001220703,98.40204521
2796,-0.036,-0.059,-0.059,-0.965250965,-0.000183105,98.40594791
2798,-0.039,-0.049,-0.049,-0.916988417,0.000946045,98.40176885
2800,-0.039,-0.024,-0.024,-1.013513514,0.002746582,98.40458407
2802,-0.041,-0.028,-0.028,-0.965250965,0.004638672,98.40807085
2804,-0.043,-0.09,-0.09,-0.965250965,0.002349854,98.40757963
2806,-0.045,-0.054,-0.054,-0.916988417,0.001708984,98.40863288
2808,-0.042,-0.013,-0.013,-1.013513514,0,98.40717758
2810,-0.044,-0.045,-0.045,-1.013513514,0.004455566,98.40976853
2812,-0.044,-0.096,-0.096,-0.965250965,0.003112793,98.41066294
2814,-0.046,-0.028,-0.028,-0.916988417,0.002166748,98.41177864
2816,-0.046,-0.004,-0.004,-0.868725869,0.000244141,98.41521035
2818,-0.044,-0.047,-0.047,-1.061776062,0.000640869,98.41478023
2820,-0.047,-0.091,-0.091,-0.868725869,0,98.41860813
2822,-0.047,-0.051,-0.051,-1.013513514,0.003417969,98.41854385
2824,-0.049,0.014,0.014,-0.868725869,0.002075195,98.41977236
2826,-0.046,-0.058,-0.058,-0.916988417,0.004364014,98.42039401
2828,-0.047,-0.048,-0.048,-0.916988417,0.001403809,98.42261062
2830,-0.046,-0.046,-0.046,-0.916988417,0.002655029,98.42307832
2832,-0.047,0.019,0.019,-0.868725869,0.000183105,98.42592273
2834,-0.046,-0.054,-0.054,-0.82046332,0.003509521,98.42538626
2836,-0.047,-0.096,-0.096,-0.965250965,0.002166748,98.42950534
2838,-0.047,-0.016,-0.016,-0.965250965,0.003692627,98.42537121
2840,-0.047,-0.013,-0.013,-0.868725869,0.000823975,98.43036058
2842,-0.047,0.007,0.007,-0.965250965,0.000366211,98.43263639
2844,-0.047,-0.031,-0.031,-0.916988417,0.001403809,98.43322046
2846,-0.048,-0.016,-0.016,-1.11003861,0.003997803,98.4296487
2848,-0.049,0.011,0.011,-1.11003861,0.0050354,98.43302507
2850,-0.048,-0.054,-0.054,-1.11003861,0.004760742,98.43527754
2852,-0.047,-0.088,-0.088,-1.158301158,0.000549316,98.43445134
2854,-0.048,-0.021,-0.021,-0.965250965,-0.001312256,98.43218305
2856,-0.047,-0.024,-0.024,-1.061776062,0.000457764,98.43033012
2858,-0.046,-0.05,-0.05,-1.158301158,0.005126953,98.43114708
2860,-0.048,-0.049,-0.049,-1.061776062,0.003875732,98.43304067
2862,-0.047,-0.072,-0.072,-1.061776062,0.017425537,98.43667934
2864,-0.048,-0.03,-0.03,-1.013513514,-0.107818604,98.43378793
2866,-0.048,0.006,0.006,-1.206563707,0.079803467,98.43385545
2868,-0.048,-0.03,-0.03,-1.013513514,0.196136475,98.43310594
2870,-0.047,-0.02,-0.02,-0.965250965,0.078582764,98.43050294
2872,-0.048,0.003,0.003,-1.013513514,-0.479888916,98.43307818
2874,-0.048,-0.035,-0.035,-0.965250965,-0.213806152,98.43599729
2876,-0.046,-0.063,-0.063,-1.061776062,0.603485107,98.43485609
2878,-0.046,0.007,0.007,-1.013513514,0.614624023,98.43303664
2880,-0.046,0.024,0.024,-1.061776062,-0.207702637,98.43284589
2882,-0.047,-0.015,-0.015,-1.061776062,-0.594116211,98.43063095
2884,-0.047,0.005,0.005,-0.965250965,-0.596862793,98.42721131
2886,-0.047,-0.029,-0.029,-1.013513514,0.231536865,98.42616539
2888,-0.047,0.024,0.024,-1.013513514,0.635009766,98.42401995
2890,-0.046,0.017,0.017,-0.916988417,0.434173584,98.42145046
2892,-0.047,-0.049,-0.049,-0.916988417,0.255767822,98.42287565
2894,-0.043,-0.047,-0.047,-0.772200772,-0.15512085,98.42744489
2896,-0.039,-0.025,-0.025,-0.916988417,-0.504760742,98.42430825
2898,-0.037,-0.036,-0.036,-1.061776062,-0.598510742,98.42840342
2900,-0.035,-0.089,-0.089,-0.916988417,-0.211700439,98.42909082
2902,-0.035,-0.046,-0.046,-0.965250965,0.027648926,98.42602598
2904,-0.029,-0.049,-0.049,-1.013513514,0.50390625,98.42806837
2906,-0.022,-0.007,-0.007,-1.061776062,0.643035889,98.42958416
2908,-0.012,-0.046,-0.046,-0.965250965,0.455841064,98.42790313
2910,-0.004,-0.046,-0.046,-0.868725869,0.029815674,98.42811882
2912,-0.004,0.007,0.007,-0.965250965,-0.343688965,98.42336645
2914,-0.005,-0.053,-0.053,-0.965250965,-0.557769775,98.41858918
2916,-0.008,-0.113,-0.113,-0.916988417,-0.344848633,98.42157443
2918,-0.012,-0.032,-0.032,-0.916988417,-0.369903564,98.41765255
2920,-0.022,-0.037,-0.037,-0.965250965,0.195678711,98.41954062
2922,-0.029,-0.059,-0.059,-1.013513514,0.289611816,98.42229088
2924,-0.035,-0.085,-0.085,-0.916988417,0.262817383,98.42520582
2926,-0.044,-0.059,-0.059,-0.965250965,0.182220459,98.42730051
2928,-0.053,-0.012,-0.012,-0.965250965,0.030395508,98.43176589
2930,-0.059,-0.048,-0.048,-1.013513514,-0.087219238,98.42974608
2932,-0.06,-0.104,-0.104,-0.965250965,-0.11138916,98.43470429
2934,-0.061,-0.052,-0.052,-0.965250965,-0.06149292,98.43524877
2936,-0.062,-0.006,-0.006,-1.158301158,0.002532959,98.43680965
2938,-0.064,-0.005,-0.005,-1.061776062,0.031829834,98.44126314
2940,-0.063,-0.06,-0.06,-0.868725869,0.016967773,98.43850951
2942,-0.064,0.067,0.067,-1.013513514,-0.017028809,98.44332469
2944,-0.064,0.225,0.225,-0.916988417,-0.036987305,98.44003091
2946,-0.06,0.349,0.349,-0.916988417,-0.031280518,98.44444151
2948,-0.061,0.208,0.208,-0.965250965,-0.009613037,98.44901111
2950,-0.061,0.107,0.107,-0.965250965,0.013214111,98.44576126
2952,-0.062,-0.023,-0.023,-0.965250965,0.021606445,98.44130436
2954,-0.063,-0.077,-0.077,-1.013513514,0.017913818,98.43898644
2956,-0.062,-0.195,-0.195,-1.11003861,0.010559082,98.43944654
2958,-0.064,-0.219,-0.219,-0.965250965,0.006103516,98.4421984
2960,-0.065,-0.15,-0.15,-1.061776062,0.008758545,98.443236
2962,-0.066,-0.112,-0.112,-1.013513514,0.011627197,98.44139696
2964,-0.048,-0.116,-0.116,-1.013513514,0.008575439,98.44073048
2966,-0.001,-0.121,-0.121,-1.061776062,0.000946045,98.44415828
2968,0.08,-0.024,-0.024,-0.965250965,-0.003234863,98.4454196
2970,0.185,-0.071,-0.071,-1.061776062,-0.007415771,98.44314508
2972,0.25,-0.099,-0.099,-1.061776062,-0.0050354,98.44329043
2974,0.218,-0.09,-0.09,-1.061776062,-0.002288818,98.44717443
2976,0.102,-0.05,-0.05,-0.965250965,-0.000549316,98.44391739
2978,-0.045,0.004,0.004,-1.013513514,0.000457764,98.44711807
2980,-0.154,-0.075,-0.075,-0.916988417,0.000183105,98.44392999
2982,-0.198,-0.047,-0.047,-0.916988417,-0.000457764,98.43990263
2984,-0.195,0.019,0.019,-1.013513514,-0.000946045,98.43521578
2986,-0.16,-0.05,-0.05,-1.061776062,0.001220703,98.43031754
2988,-0.124,-0.037,-0.037,-1.061776062,0.005218506,98.43499201
2990,-0.097,-0.078,-0.078,-1.013513514,0.006469727,98.43887238
2992,-0.081,-0.022,-0.022,-0.965250965,0.004058838,98.43436923
2994,-0.072,-0.016,-0.016,-1.013513514,0.00177002,98.4360713
2996,-0.068,-0.084,-0.084,-1.013513514,0.003417969,98.44083752
2998,-0.061,-0.01,-0.01,-1.11003861,0.002532959,98.43804018
3000,-0.052,0.023,0.023,-1.254826255,0.003509521,98.43388076
3002,-0.053,0.023,0.023,-1.061776062,0.001403809,98.43246941
3004,-0.057,-0.055,-0.055,-1.11003861,0.003051758,98.43480125
3006,-0.055,-0.031,-0.031,-1.11003861,0.003234863,98.43582269
3008,-0.046,0.043,0.043,-1.061776062,0.001983643,98.4353364
3010,-0.046,-0.018,-0.018,-1.061776062,0.000640869,98.43946443
3012,-0.047,-0.032,-0.032,-1.061776062,6.10E-05,98.43449621
3014,-0.047,-0.001,-0.001,-1.158301158,0.000549316,98.434597
3016,-0.043,0.038,0.038,-1.158301158,0.003997803,98.43104161
3018,-0.041,-0.016,-0.016,-1.061776062,0.001220703,98.43108811
3020,-0.041,-0.061,-0.061,-1.158301158,0.001220703,98.43177026
3022,-0.037,0.016,0.016,-1.206563707,0.002075195,98.43319196
3024,-0.033,0.06,0.06,-1.013513514,0.003112793,98.4302613
3026,-0.033,0.031,0.031,-1.061776062,0.002929688,98.42866317
3028,-0.033,-0.001,-0.001,-1.013513514,0.003692627,98.42693791
3030,-0.026,-0.002,-0.002,-0.965250965,0.001586914,98.42808756
3032,-0.023,0.046,0.046,-1.061776062,-0.000183105,98.42899946
3034,-0.026,-0.025,-0.025,-0.965250965,0.000549316,98.4308787
3036,-0.026,-0.04,-0.04,-1.11003861,0.000823975,98.42754308
3038,-0.021,0.01,0.01,-1.206563707,0.003875732,98.42906535
3040,-0.015,0.004,0.004,-1.11003861,0.004058838,98.43175173
3042,-0.014,0.041,0.041,-1.061776062,0.003997803,98.43070939
3044,-0.017,-0.064,-0.064,-0.965250965,0.002532959,98.42967203
3046,-0.018,0.019,0.019,-1.013513514,0.000183105,98.43159324
3048,-0.017,0.033,0.033,-0.965250965,0.000946045,98.42896997
3050,-0.017,-0.003,-0.003,-0.965250965,0.003692627,98.43345879
3052,-0.017,-0.047,-0.047,-1.061776062,0.002655029,98.42981632
3054,-0.018,-0.021,-0.021,-1.11003861,0.002746582,98.42993147
3056,-0.018,0.031,0.031,-1.061776062,-0.00100708,98.42534578
3058,-0.016,0.011,0.011,-1.11003861,0.001220703,98.42346988
3060,-0.018,-0.049,-0.049,-1.013513514,0.003417969,98.42168758
3062,-0.018,0.02,0.02,-0.965250965,0.002471924,98.4261708
3064,-0.017,0.057,0.057,-1.061776062,0.002075195,98.42324421
3066,-0.017,0.047,0.047,-1.013513514,0.00112915,98.42313764
3068,-0.017,-0.01,-0.01,-1.013513514,-0.000549316,98.42258439
3070,-0.012,-0.049,-0.049,-0.965250965,0.000549316,98.42579287
3072,-0.004,-0.019,-0.019,-0.916988417,0.003509521,98.42096768
3074,-0.005,0.021,0.021,-1.013513514,0.005218506,98.42385283
3076,-0.004,-0.06,-0.06,-1.013513514,0.003814697,98.42426073
3078,-0.001,-0.072,-0.072,-0.965250965,0.003112793,98.4197155
3080,0.001,0.006,0.006,-1.061776062,-0.001586914,98.419854
3082,0.002,-0.041,-0.041,-1.158301158,-0.001708984,98.41931024
3084,-0.001,-0.081,-0.081,-1.061776062,0.002349854,98.41922389
3086,-0.002,-0.004,-0.004,-0.965250965,0.003692627,98.42082278
3088,-0.005,0.012,0.012,-1.061776062,0.003601074,98.42087649
3090,-0.009,-0.013,-0.013,-0.868725869,0.002655029,98.42329508
3092,-0.013,-0.063,-0.063,-1.013513514,0.001403809,98.42773358
3094,-0.023,-0.057,-0.057,-1.061776062,0.00100708,98.43072683
3096,-0.028,0.001,0.001,-1.061776062,-0.061096191,98.43010409
3098,-0.028,0.007,0.007,-1.11003861,0.066375732,98.42600722
3100,-0.032,-0.041,-0.041,-0.916988417,0.106689453,98.4303429
3102,-0.034,-0.064,-0.064,-1.158301158,0.012756348,98.42912667
3104,-0.04,0.04,0.04,-1.061776062,-0.298675537,98.43171589
3106,-0.044,-0.011,-0.011,-1.11003861,-0.060058594,98.43475382
3108,-0.039,-0.043,-0.043,-1.013513514,0.454406738,98.43779619
3110,-0.038,-0.016,-0.016,-0.916988417,0.172668457,98.43875412
3112,-0.037,0.024,0.024,-1.061776062,-0.360168457,98.43700399
3114,-0.037,-0.038,-0.038,-0.965250965,-0.313446045,98.43948747
3116,-0.037,-0.074,-0.074,-0.916988417,-0.042602539,98.43925219
3118,-0.037,-0.045,-0.045,-1.061776062,0.33013916,98.43940809
3120,-0.034,0.001,0.001,-0.965250965,0.405761719,98.43920904
3122,-0.032,0.007,0.007,-0.965250965,0.16973877,98.43844921
3124,-0.034,-0.008,-0.008,-0.965250965,-0.240325928,98.43520938
3126,-0.032,-0.057,-0.057,-1.061776062,-0.467468262,98.43301495
3128,-0.027,-0.023,-0.023,-0.916988417,-0.360565186,98.43679166
3130,-0.027,-0.017,-0.017,-0.916988417,-0.052642822,98.44053022
3132,-0.029,-0.039,-0.039,-0.965250965,0.268554688,98.44042608
3134,-0.029,-0.064,-0.064,-0.82046332,0.44229126,98.4414889
3136,-0.024,-0.026,-0.026,-0.965250965,0.373901367,98.44366577
3138,-0.024,0.015,0.015,-0.82046332,0.13092041,98.44006601
3140,-0.026,-0.032,-0.032,-0.868725869,-0.16619873,98.44089654
3142,-0.028,-0.059,-0.059,-0.965250965,-0.351959229,98.43784655
3144,-0.026,0.023,0.023,-0.965250965,-0.343688965,98.43347992
3146,-0.027,-0.015,-0.015,-1.11003861,-0.162689209,98.42911894
3148,-0.026,-0.041,-0.041,-1.061776062,0.055389404,98.4335176
3150,-0.027,-0.073,-0.073,-0.916988417,0.196716309,98.43371944
3152,-0.03,-0.026,-0.026,-0.868725869,0.202178955,98.4302206
3154,-0.033,-0.02,-0.02,-0.82046332,0.115081787,98.43168653
3156,-0.034,-0.06,-0.06,-1.061776062,0.014190674,98.43252435
3158,-0.037,-0.017,-0.017,-0.916988417,-0.040496826,98.43064769
3160,-0.037,-0.005,-0.005,-0.916988417,-0.039276123,98.43236913
3162,-0.039,-0.06,-0.06,-0.868725869,-0.017425537,98.43133969
3164,-0.044,-0.076,-0.076,-1.013513514,-0.003295898,98.42853485
3166,-0.044,-0.021,-0.021,-0.916988417,-0.011322021,98.42594306
3168,-0.043,-0.016,-0.016,-0.675675676,-0.020965576,98.42480681
3170,-0.045,-0.056,-0.056,-0.965250965,-0.025177002,98.42014183
3172,-0.047,-0.06,-0.06,-1.206563707,-0.012756348,98.41860905
3174,-0.047,-0.077,-0.077,-1.11003861,0.00177002,98.41912947
3176,-0.046,-0.037,-0.037,-0.82046332,0.012573242,98.41971387
3178,-0.046,-0.002,-0.002,-1.013513514,0.015258789,98.41538202
3180,-0.049,-0.062,-0.062,-1.013513514,0.012756348,98.41620142
3182,-0.049,-0.019,-0.019,-1.013513514,0.007049561,98.41596
3184,-0.049,0.019,0.019,-1.013513514,0.006652832,98.41757935
3186,-0.049,-0.008,-0.008,-1.061776062,0.005401611,98.42044032
3188,-0.049,-0.039,-0.039,-1.206563707,0.006561279,98.4173406
3190,-0.049,-0.088,-0.088,-0.482625483,0.002655029,98.6
3192,-0.045,-0.02,-0.02,-0.530888031,0.001403809,98.59654594
3194,-0.044,0.007,0.007,-0.434362934,0.006652832,98.59986898
3196,-0.048,-0.084,-0.084,-0.627413127,0.003295898,98.5963665
3198,-0.05,-0.014,-0.014,-0.579150579,0.019317627,98.59816196
3200,-0.049,-0.045,-0.045,-0.675675676,-0.035095215,98.60066286
3202,-0.051,0.007,0.007,-0.627413127,-0.05670166,98.59581176
3204,-0.05,-0.049,-0.049,-0.627413127,0.175170898,98.59223423
3206,-0.05,-0.095,-0.095,-0.579150579,0.161987305,98.58754078
3208,-0.05,-0.039,-0.039,-0.434362934,-0.211029053,98.59062774
3210,-0.05,-0.055,-0.055,-0.579150579,-0.643218994,98.5860992
3212,-0.051,-0.086,-0.086,-0.482625483,0.182342529,98.58776101
3214,-0.053,-0.059,-0.059,-0.530888031,0.747283936,98.58732134
3216,-0.053,-0.034,-0.034,-0.579150579,0.050598145,98.5903513
3218,-0.047,0.006,0.006,-0.530888031,-0.366455078,98.58893569
3220,-0.047,-0.048,-0.048,-0.579150579,-0.726379395,98.58418903
3222,-0.046,-0.03,-0.03,-0.530888031,-0.086273193,98.58137491
3224,-0.047,-0.025,-0.025,-0.482625483,0.459533691,98.58348406
3226,-0.047,-0.037,-0.037,-0.530888031,0.608612061,98.58397327
3228,-0.046,-0.023,-0.023,-0.530888031,0.311340332,98.5876702
3230,-0.043,-0.087,-0.087,-0.482625483,0.092773438,98.59005856
3232,-0.045,0.001,0.001,-0.482625483,-0.436462402,98.58609086
3234,-0.046,0.007,0.007,-0.530888031,-0.631011963,98.59080519
3236,-0.046,-0.033,-0.033,-0.434362934,-0.477661133,98.59319232
3238,-0.046,-0.039,-0.039,-0.482625483,-0.126525879,98.58833089
3240,-0.047,-0.008,-0.008,-0.482625483,0.502075195,98.59012211
3242,-0.046,-0.004,-0.004,-0.482625483,0.502258301,98.58997714
3244,-0.047,-0.018,-0.018,-0.386100386,0.621673584,98.58532432
3246,-0.047,-0.06,-0.06,-0.482625483,0.290466309,98.58146872
3248,-0.046,-0.011,-0.011,-0.434362934,-0.193023682,98.57723497
3250,-0.046,-0.023,-0.023,-0.386100386,-0.514678955,98.57831321
3252,-0.047,-0.027,-0.027,-0.579150579,-0.502563477,98.57564787
3254,-0.047,0.025,0.025,-0.337837838,-0.142852783,98.57206799
3256,-0.047,0.068,0.068,-0.482625483,-0.106994629,98.57236972
3258,-0.045,0.009,0.009,-0.434362934,0.240783691,98.57667273
3260,-0.046,-0.009,-0.009,-0.434362934,0.34866333,98.57784176
3262,-0.039,0.025,0.025,-0.386100386,0.199310303,98.57974068
3264,-0.034,-0.017,-0.017,-0.482625483,0.075317383,98.57708494
3266,-0.031,0.028,0.028,-0.386100386,-0.046020508,98.57415338
3268,-0.031,-0.033,-0.033,-0.579150579,-0.112335205,98.56952704
3270,-0.029,-0.086,-0.086,-0.482625483,-0.088104248,98.57116069
3272,-0.026,-0.04,-0.04,-0.530888031,-0.022583008,98.57123323
3274,-0.015,-0.04,-0.04,-0.482625483,0.027648926,98.57109124
3276,-0.006,-0.085,-0.085,-0.530888031,0.0284729,98.57470819
3278,-0.001,-0.017,-0.017,-0.579150579,-0.003295898,98.57936334
3280,0.002,-0.018,-0.018,-0.482625483,-0.032409668,98.58196022
3282,0,-0.05,-0.05,-0.579150579,-0.039672852,98.57942701
3284,-0.004,-0.082,-0.082,-0.530888031,-0.019439697,98.58118969
3286,-0.012,-0.056,-0.056,-0.627413127,0.005706787,98.58378274
3288,-0.018,-0.025,-0.025,-0.579150579,0.024017334,98.58464464
3290,-0.027,0,0,-0.579150579,0.020965576,98.58786903
3292,-0.031,-0.064,-0.064,-0.579150579,0.01449585,98.59213738
3294,-0.041,-0.069,-0.069,-0.530888031,0.006103516,98.59351305
3296,-0.047,0.015,0.015,-0.579150579,0.008392334,98.58870243
3298,-0.052,-0.01,-0.01,-0.530888031,0.011901855,98.58554584
3300,-0.051,-0.041,-0.041,-0.627413127,0.009033203,98.58081324
3302,-0.051,-0.033,-0.033,-0.530888031,0.003112793,98.58516323
3304,-0.051,-0.022,-0.022,-0.627413127,-0.003112793,98.5850079
3306,-0.052,-0.035,-0.035,-0.530888031,-0.007873535,98.58795576
3308,-0.051,0.002,0.002,-0.579150579,-0.005340576,98.58752411
3310,-0.051,0.079,0.079,-0.579150579,-0.003295898,98.58746621
3312,-0.052,0.218,0.218,-0.579150579,0.000823975,98.58672335
3314,-0.052,0.298,0.298,-0.627413127,-0.000457764,98.59064107
3316,-0.052,0.201,0.201,-0.530888031,-0.00189209,98.59438392
3318,-0.05,0.095,0.095,-0.530888031,-0.00112915,98.59571542
3320,-0.047,-0.006,-0.006,-0.530888031,0.00112915,98.59363821
3322,-0.047,-0.141,-0.141,-0.482625483,0.004364014,98.591555
3324,-0.049,-0.172,-0.172,-0.530888031,0.005340576,98.58901
3326,-0.052,-0.19,-0.19,-0.530888031,0.004364014,98.59105348
3328,-0.05,-0.07,-0.07,-0.482625483,0.001403809,98.5937996
3330,-0.046,-0.116,-0.116,-0.434362934,0.00177002,98.59702613
3332,-0.033,-0.144,-0.144,-0.530888031,0.004638672,98.60008803
3334,0.016,-0.045,-0.045,-0.434362934,0.005981445,98.59762574
3336,0.098,0.01,0.01,-0.482625483,0.0050354,98.60063074
3338,0.199,-0.023,-0.023,-0.530888031,0.000946045,98.60192782
3340,0.255,-0.042,-0.042,-0.434362934,-0.001586914,98.59924284
3342,0.206,-0.068,-0.068,-0.482625483,0.001312256,98.59805361
3344,0.08,0.021,0.021,-0.482625483,0.000366211,98.59758562
3346,-0.062,-0.016,-0.016,-0.530888031,0.003814697,98.59759122
3348,-0.161,-0.09,-0.09,-0.482625483,0.001312256,98.59799693
3350,-0.197,-0.072,-0.072,-0.482625483,0.001586914,98.59644839
3352,-0.178,-0.013,-0.013,-0.482625483,0.000823975,98.59436269
3354,-0.141,-0.034,-0.034,-0.482625483,0.000549316,98.59639797
3356,-0.108,-0.043,-0.043,-0.530888031,0.00177002,98.60073876
3358,-0.083,-0.041,-0.041,-0.530888031,0.00579834,98.6016805
3360,-0.068,0.038,0.038,-0.579150579,0.003295898,98.60261141
3362,-0.057,-0.027,-0.027,-0.482625483,0.001708984,98.60499872
3364,-0.057,-0.048,-0.048,-0.482625483,0.000762939,98.60372515
3366,-0.048,-0.054,-0.054,-0.579150579,0,98.60325786
3368,-0.043,-0.027,-0.027,-0.530888031,0.002838135,98.60335161
3370,-0.042,0.016,0.016,-0.579150579,0.004058838,98.60763872
3372,-0.044,-0.072,-0.072,-0.482625483,0.001403809,98.6071466
3374,-0.043,0.009,0.009,-0.482625483,0.000183105,98.60852095
3376,-0.04,0.05,0.05,-0.482625483,0.000366211,98.60811459
3378,-0.039,0.029,0.029,-0.482625483,0.002166748,98.60865233
3380,-0.037,-0.033,-0.033,-0.482625483,0.004638672,98.60406466
3382,-0.035,-0.052,-0.052,-0.434362934,0.003601074,98.60708668
3384,-0.032,0.055,0.055,-0.579150579,0.000549316,98.6088018
3386,-0.029,0.012,0.012,-0.530888031,0,98.60580507
3388,-0.029,-0.048,-0.048,-0.579150579,0.000640869,98.60095094
3390,-0.027,0.018,0.018,-0.530888031,0.004364014,98.6035826
3392,-0.028,0.008,0.008,-0.530888031,0.00177002,98.60425771
3394,-0.027,0.042,0.042,-0.482625483,0.004577637,98.60579985
3396,-0.02,-0.026,-0.026,-0.530888031,-0.000244141,98.60714726
3398,-0.018,-0.028,-0.028,-0.530888031,-0.000244141,98.60949056
3400,-0.022,0.058,0.058,-0.482625483,-0.001403809,98.61336382
3402,-0.016,-0.015,-0.015,-0.530888031,0.000366211,98.61502291
3404,-0.016,-0.041,-0.041,-0.386100386,0.002075195,98.61122966
3406,-0.015,-0.036,-0.036,-0.530888031,0.007049561,98.61336702
3408,-0.016,0.053,0.053,-0.434362934,0.004364014,98.61283929
3410,-0.015,0.031,0.031,-0.482625483,0.002349854,98.61424911
3412,-0.008,-0.055,-0.055,-0.530888031,-0.000823975,98.61573807
3414,-0.004,-0.007,-0.007,-0.482625483,0.002471924,98.61752183
3416,-0.005,0.013,0.013,-0.530888031,0.002288818,98.6131101
3418,-0.005,0.001,0.001,-0.434362934,0.003997803,98.61034964
3420,-0.009,-0.029,-0.029,-0.627413127,0.000244141,98.60702945
3422,-0.013,0.004,0.004,-0.530888031,0.001220703,98.61131474
3424,-0.011,0.08,0.08,-0.482625483,0.002075195,98.61146705
3426,-0.005,0.008,0.008,-0.579150579,0.002166748,98.61320069
3428,-0.008,-0.045,-0.045,-0.482625483,0.003234863,98.61487869
3430,-0.013,0.001,0.001,-0.627413127,0.015716553,98.61069331
3432,-0.008,0.012,0.012,-0.482625483,-0.034698486,98.60794404
3434,-0.008,0.038,0.038,-0.530888031,0.001403809,98.60578593
3436,-0.004,-0.02,-0.02,-0.482625483,0.09942627,98.60992357
3438,-0.004,-0.055,-0.055,-0.482625483,0.068908691,98.60721459
3440,-0.004,0.001,0.001,-0.579150579,-0.185180664,98.60470079
3442,-0.003,-0.001,-0.001,-0.482625483,-0.303131104,98.6064637
3444,-0.001,-0.042,-0.042,-0.530888031,0.337982178,98.6079486
3446,0.003,-0.013,-0.013,-0.579150579,0.38659668,98.60998537
3448,0.001,-0.031,-0.031,-0.434362934,-0.212280273,98.61335641
3450,0.001,0.02,0.02,-0.579150579,-0.380889893,98.61562936
3452,0.001,-0.033,-0.033,-0.434362934,-0.164276123,98.61082371
3454,-0.001,-0.06,-0.06,-0.530888031,0.19052124,98.61166117
3456,-0.006,-0.015,-0.015,-0.530888031,0.423217773,98.61586994
3458,-0.009,-0.047,-0.047,-0.530888031,0.294372559,98.61178672
3460,-0.013,-0.08,-0.08,-0.530888031,-0.071502686,98.61233233
3462,-0.015,-0.005,-0.005,-0.482625483,-0.416931152,98.61664035
3464,-0.018,-0.015,-0.015,-0.482625483,-0.435699463,98.61363488
3466,-0.024,0.007,0.007,-0.434362934,-0.189575195,98.61388808
3468,-0.028,-0.016,-0.016,-0.482625483,0.139312744,98.61015547
3470,-0.034,-0.03,-0.03,-0.482625483,0.399200439,98.61264274
3472,-0.034,0.041,0.041,-0.482625483,0.431518555,98.61078943
3474,-0.034,-0.008,-0.008,-0.434362934,0.247192383,98.60766117
3476,-0.034,-0.072,-0.072,-0.434362934,-0.046325684,98.61246512
3478,-0.03,-0.006,-0.006,-0.386100386,-0.296264648,98.61459339
3480,-0.033,0.011,0.011,-0.530888031,-0.37677002,98.61784989
3482,-0.032,-0.032,-0.032,-0.530888031,-0.251556396,98.61968209
3484,-0.034,-0.021,-0.021,-0.530888031,-0.03326416,98.62157611
3486,-0.033,-0.064,-0.064,-0.579150579,0.156280518,98.62188487
3488,-0.034,-0.012,-0.012,-0.530888031,0.217315674,98.61877341
3490,-0.035,0.019,0.019,-0.530888031,0.157226563,98.61870356
3492,-0.033,-0.02,-0.02,-0.530888031,0.052062988,98.61929896
3494,-0.032,-0.058,-0.058,-0.482625483,-0.027526855,98.62258176
3496,-0.027,-0.011,-0.011,-0.530888031,-0.048309326,98.61961045
3498,-0.027,-0.039,-0.039,-0.434362934,-0.027526855,98.61988791
3500,-0.026,-0.079,-0.079,-0.579150579,-0.004455566,98.62296602
3502,-0.027,-0.024,-0.024,-0.434362934,-0.004760742,98.62151707
3504,-0.027,0.024,0.024,-0.579150579,-0.016967773,98.62199462
3506,-0.027,0.006,0.006,-0.482625483,-0.026184082,98.624169
3508,-0.025,-0.075,-0.075,-0.627413127,-0.022003174,98.62119412
3510,-0.024,-0.033,-0.033,-0.482625483,-0.00112915,98.62263169
3512,-0.026,-0.034,-0.034,-0.627413127,0.013214111,98.61763258
3514,-0.027,-0.049,-0.049,-0.482625483,0.018676758,98.61776435
3516,-0.026,-0.047,-0.047,-0.579150579,0.013793945,98.61846264
3518,-0.026,-0.021,-0.021,-0.530888031,0.007324219,98.61353301
3520,-0.03,0.012,0.012,-0.482625483,0.007049561,98.61745773
3522,-0.034,-0.007,-0.007,-0.482625483,0.007049561,98.62078967
3524,-0.037,-0.033,-0.033,-0.482625483,0.011138916,98.62354132
3526,-0.041,-0.09,-0.09,-0.530888031,0.007049561,98.62642268
3528,-0.042,-0.028,-0.028,-0.530888031,0.001983643,98.62515898
3530,-0.045,0.002,0.002,-0.530888031,-0.003814697,98.62168209
3532,-0.044,-0.039,-0.039,-0.627413127,-0.001983643,98.6202047
3534,-0.046,-0.026,-0.026,-0.530888031,-0.005340576,98.62165568
3536,-0.047,0.013,0.013,-0.579150579,-0.000549316,98.62597504
3538,-0.047,-0.028,-0.028,-0.530888031,0.001525879,98.62190825
3540,-0.047,-0.099,-0.099,-0.482625483,-0.000183105,98.62429603
3542,-0.047,-0.038,-0.038,-0.627413127,-0.000183105,98.61984871
3544,-0.046,0,0,-0.530888031,-0.00100708,98.62242029
3546,-0.045,-0.042,-0.042,-0.386100386,0.000183105,98.62205518
3548,-0.05,-0.041,-0.041,-0.579150579,0.006103516,98.61750523
3550,-0.052,-0.081,-0.081,-0.386100386,0.004638672,98.62092552
3552,-0.052,-0.041,-0.041,-0.434362934,0.002746582,98.61757264
3554,-0.049,-0.004,-0.004,-0.530888031,0.000762939,98.61372338
3556,-0.05,-0.046,-0.046,-0.434362934,0.002166748,98.61143899
3558,-0.05,-0.071,-0.071,-0.530888031,-0.001312256,98.60958285
3560,-0.052,-0.011,-0.011,-0.482625483,0.003692627,98.61064375
3562,-0.049,-0.048,-0.048,-0.482625483,-0.000823975,98.61241841
3564,-0.049,-0.041,-0.041,-0.434362934,0.001525879,98.61729484
3566,-0.052,-0.048,-0.048,-0.482625483,0.001708984,98.62222744
3568,-0.055,-0.044,-0.044,-0.482625483,0.002929688,98.62480281
3570,-0.052,-0.012,-0.012,-0.434362934,-6.10E-05,98.6225534
3572,-0.055,-0.098,-0.098,-0.482625483,0.002929688,98.62709354
3574,-0.055,-0.08,-0.08,-0.434362934,0.00112915,98.62620436
3576,-0.055,-0.042,-0.042,-0.434362934,0.001525879,98.6233706
3578,-0.051,-0.014,-0.014,-0.530888031,0.000823975,98.6246619
3580,-0.052,-0.027,-0.027,-0.482625483,0.001220703,98.61981059
3582,-0.051,-0.082,-0.082,-0.530888031,0.003601074,98.61524359
3584,-0.052,-0.05,-0.05,-0.482625483,0.007324219,98.61204621
3586,-0.054,-0.058,-0.058,-0.482625483,0.001983643,98.60905086
3588,-0.053,-0.104,-0.104,-0.434362934,-0.000823975,98.61124443
3590,-0.054,-0.063,-0.063,-0.482625483,6.10E-05,98.61067311
3592,-0.052,-0.034,-0.034,-0.482625483,0.004577637,98.61412804
3594,-0.049,0,0,-0.482625483,0.003997803,98.61302594
3596,-0.049,-0.064,-0.064,-0.434362934,0.001525879,98.61640146
3598,-0.054,-0.078,-0.078,-0.482625483,-0.002075195,98.61888565
3600,-0.056,-0.027,-0.027,-0.482625483,-0.00189209,98.61972426
3602,-0.056,-0.045,-0.045,-0.482625483,0.000457764,98.61632999
3604,-0.047,-0.038,-0.038,-0.530888031,0.002288818,98.61661839
3606,-0.046,-0.076,-0.076,-0.434362934,0.00100708,98.6162451
3608,-0.047,0.019,0.019,-0.530888031,0.006164551,98.61504054
3610,-0.047,0.025,0.025,-0.482625483,0.006469727,98.61097284
3612,-0.049,-0.009,-0.009,-0.482625483,0.001983643,98.6085643
3614,-0.052,-0.025,-0.025,-0.530888031,0,98.60692266
3616,-0.053,0.005,0.005,-0.579150579,0.001220703,98.60567378
3618,-0.055,0.023,0.023,-0.530888031,0.00100708,98.60213638
3620,-0.054,-0.037,-0.037,-0.530888031,0.006561279,98.60030408
3622,-0.052,-0.03,-0.03,-0.530888031,0.003875732,98.59811633
3624,-0.048,0.027,0.027,-0.530888031,0.00189209,98.60131757
3626,-0.044,-0.001,-0.001,-0.530888031,0.002838135,98.59973847
3628,-0.042,-0.041,-0.041,-0.579150579,0.003692627,98.60345849
3630,-0.043,-0.073,-0.073,-0.482625483,0.000457764,98.60113878
3632,-0.039,-0.042,-0.042,-0.579150579,-0.000762939,98.6038931
3634,-0.034,-0.009,-0.009,-0.530888031,-0.000946045,98.60498519
3636,-0.026,-0.119,-0.119,-0.482625483,0.003234863,98.60016488
3638,-0.021,-0.1,-0.1,-0.530888031,0.004364014,98.60217999
3640,-0.014,-0.056,-0.056,-0.434362934,0.003295898,98.59733752
3642,-0.011,-0.045,-0.045,-0.482625483,0.001983643,98.59917645
3644,-0.014,-0.046,-0.046,-0.482625483,0.00112915,98.60295546
3646,-0.016,-0.078,-0.078,-0.482625483,0.003601074,98.60227352
3648,-0.023,-0.064,-0.064,-0.482625483,0.003234863,98.60358695
3650,-0.032,-0.029,-0.029,-0.482625483,0.000457764,98.60444736
3652,-0.039,-0.075,-0.075,-0.530888031,0.00177002,98.60172147
3654,-0.045,-0.041,-0.041,-0.434362934,0.002166748,98.60456802
3656,-0.056,-0.027,-0.027,-0.434362934,0.005126953,98.60244438
3658,-0.064,-0.077,-0.077,-0.434362934,0.003051758,98.60668814
3660,-0.063,-0.082,-0.082,-0.482625483,0.000640869,98.60467289
3662,-0.066,-0.062,-0.062,-0.434362934,0.001586914,98.60503592
3664,-0.066,-0.068,-0.068,-0.434362934,0.002075195,98.6033724
3666,-0.067,-0.059,-0.059,-0.434362934,0.005981445,98.60074534
3668,-0.066,-0.116,-0.116,-0.482625483,0.002532959,98.60119773
3670,-0.064,-0.065,-0.065,-0.482625483,0.000183105,98.59727459
3672,-0.064,0.127,0.127,-0.530888031,0.000823975,98.59364614
3674,-0.066,0.242,0.242,-0.482625483,0.001312256,98.58959041
3676,-0.065,0.307,0.307,-0.579150579,0.001525879,98.58769925
3678,-0.066,0.279,0.279,-0.482625483,0.003112793,98.59082561
3680,-0.066,0.141,0.141,-0.579150579,0.002471924,98.59096119
3682,-0.066,-0.045,-0.045,-0.530888031,0.003112793,98.59462595
3684,-0.065,-0.123,-0.123,-0.530888031,0.000183105,98.59943083
3686,-0.065,-0.198,-0.198,-0.530888031,0,98.59769735
3688,-0.066,-0.192,-0.192,-0.530888031,0.003295898,98.59489352
3690,-0.072,-0.149,-0.149,-0.530888031,0.004943848,98.59507576
3692,-0.077,-0.181,-0.181,-0.530888031,0.002655029,98.59360582
3694,-0.064,-0.132,-0.132,-0.530888031,0.002075195,98.59720059
3696,-0.006,-0.032,-0.032,-0.530888031,0.001312256,98.5948008
3698,0.08,-0.084,-0.084,-0.579150579,0.002655029,98.59823801
3700,0.181,-0.087,-0.087,-0.579150579,0.002838135,98.59906602
3702,0.249,-0.043,-0.043,-0.579150579,0.003692627,98.60126008
3704,0.216,0,0,-0.579150579,0.000823975,98.59969531
3706,0.098,-0.015,-0.015,-0.627413127,0.000183105,98.59478805
3708,-0.056,-0.077,-0.077,-0.675675676,-0.000244141,98.59171252
3710,-0.164,-0.08,-0.08,-0.579150579,0,98.5917864
3712,-0.2,0.009,0.009,-0.675675676,6.10E-05,98.58702882
3714,-0.193,-0.058,-0.058,-0.579150579,0.003295898,98.58752923
3716,-0.164,-0.095,-0.095,-0.627413127,0.002166748,98.58529107
3718,-0.131,-0.08,-0.08,-0.579150579,0.003295898,98.58725348
3720,-0.11,-0.013,-0.013,-0.482625483,0.002746582,98.59106701
3722,-0.09,0.011,0.011,-0.530888031,0.00112915,98.58631382
3724,-0.079,-0.064,-0.064,-0.482625483,0.00112915,98.58472589
3726,-0.076,-0.08,-0.08,-0.530888031,0.003692627,98.58393995
3728,-0.068,0.018,0.018,-0.482625483,0.00177002,98.57974006
3730,-0.061,-0.024,-0.024,-0.530888031,0.001983643,98.5755336
3732,-0.057,-0.021,-0.021,-0.482625483,-0.000244141,98.57125736
3734,-0.057,-0.063,-0.063,-0.434362934,0.001983643,98.57526077
3736,-0.054,-0.025,-0.025,-0.482625483,0.002288818,98.57995385
3738,-0.052,0.023,0.023,-0.530888031,0.002655029,98.57886692
3740,-0.052,-0.011,-0.011,-0.482625483,0.00112915,98.57700277
3742,-0.046,-0.028,-0.028,-0.386100386,0.002838135,98.57753591
3744,-0.046,0.04,0.04,-0.482625483,0.003234863,98.58045639
3746,-0.048,-0.021,-0.021,-0.434362934,0.004180908,98.58343953
3748,-0.042,-0.006,-0.006,-0.434362934,0.00177002,98.58707211
3750,-0.042,-0.036,-0.036,-0.482625483,0.003875732,98.59005174
3752,-0.041,-0.014,-0.014,-0.386100386,0.001708984,98.5851155
3754,-0.037,-0.016,-0.016,-0.434362934,0.001220703,98.58931451
3756,-0.038,-0.063,-0.063,-0.434362934,0.001312256,98.58449414
3758,-0.035,-0.007,-0.007,-0.482625483,0.003692627,98.5797883
3760,-0.032,-0.017,-0.017,-0.386100386,0.003234863,98.58190282
3762,-0.031,0.03,0.03,-0.482625483,0.00177002,98.58228696
3764,-0.03,-0.028,-0.028,-0.530888031,0.00112915,98.58253285
3766,-0.03,-0.053,-0.053,-0.482625483,0.003509521,98.58255525
3768,-0.029,-0.005,-0.005,-0.579150579,0.016967773,98.57821197
3770,-0.026,-0.021,-0.021,-0.482625483,-0.02822876,98.57551238
3772,-0.023,-0.024,-0.024,-0.579150579,-0.067016602,98.57168278
3774,-0.02,-0.015,-0.015,-0.530888031,0.170318604,98.57658049
3776,-0.022,0.013,0.013,-0.530888031,0.16784668,98.57228566
3778,-0.025,0.048,0.048,-0.579150579,-0.180053711,98.56788589
3780,-0.022,-0.037,-0.037,-0.482625483,-0.641235352,98.56950167
3782,-0.021,0.022,0.022,-0.579150579,0.165802002,98.56794224
3784,-0.022,0.007,0.007,-0.530888031,0.725036621,98.56422738
3786,-0.023,0.02,0.02,-0.627413127,0.101074219,98.56559873
3788,-0.022,0.014,0.014,-0.579150579,-0.354248047,98.56806361
3790,-0.015,-0.041,-0.041,-0.627413127,-0.72555542,98.57111629
3792,-0.016,0.054,0.054,-0.627413127,-0.121368408,98.56880656
3794,-0.014,0.046,0.046,-0.675675676,0.445922852,98.56814636
3796,-0.011,0,0,-0.627413127,0.615112305,98.56716442
3798,-0.008,-0.025,-0.025,-0.627413127,0.310211182,98.56824585
3800,-0.004,-0.026,-0.026,-0.579150579,0.104705811,98.57094672
3802,-0.002,0.02,0.02,-0.627413127,-0.424438477,98.57535796
3804,-0.001,-0.026,-0.026,-0.530888031,-0.609954834,98.57167261
3806,-0.001,-0.039,-0.039,-0.482625483,-0.430847168,98.56922983
3808,0.001,0.031,0.031,-0.482625483,-0.073120117,98.56801294
3810,0.003,-0.03,-0.03,-0.530888031,0.305053711,98.5729503
3812,0.002,-0.017,-0.017,-0.530888031,0.578369141,98.57135981
3814,-0.001,-0.059,-0.059,-0.530888031,0.563049316,98.57535533
3816,-0.005,-0.016,-0.016,-0.579150579,0.254516602,98.57273015
3818,-0.006,0.006,0.006,-0.530888031,-0.188446045,98.56993016
3820,-0.012,-0.075,-0.075,-0.530888031,-0.496368408,98.57484092
3822,-0.015,-0.037,-0.037,-0.530888031,-0.668121338,98.57935197
3824,-0.018,-0.031,-0.031,-0.530888031,-0.191558838,98.58073414
3826,-0.023,0.01,0.01,-0.434362934,-0.077056885,98.58077545
3828,-0.026,-0.023,-0.023,-0.530888031,0.304962158,98.57935663
3830,-0.032,-0.059,-0.059,-0.434362934,0.262054443,98.58204116
3832,-0.036,-0.024,-0.024,-0.482625483,0.22277832,98.58488478
3834,-0.034,-0.033,-0.033,-0.434362934,0.09753418,98.58017397
3836,-0.032,-0.063,-0.063,-0.386100386,-0.044311523,98.57569838
3838,-0.031,-0.005,-0.005,-0.434362934,-0.116210938,98.57393257
3840,-0.031,-0.027,-0.027,-0.386100386,-0.09085083,98.57692943
3842,-0.031,0.009,0.009,-0.386100386,-0.022369385,98.57823173
3844,-0.032,-0.019,-0.019,-0.482625483,0.027832031,98.58305971
3846,-0.032,0.006,0.006,-0.386100386,0.030212402,98.5796422
3848,-0.032,0.036,0.036,-0.386100386,-0.00100708,98.58080897
3850,-0.032,-0.013,-0.013,-0.434362934,-0.030883789,98.57889614
3852,-0.032,-0.054,-0.054,-0.434362934,-0.039367676,98.57474692
3854,-0.031,-0.008,-0.008,-0.434362934,-0.019897461,98.57851522
3856,-0.031,-0.007,-0.007,-0.434362934,0.007049561,98.57942223
3858,-0.031,-0.041,-0.041,-0.482625483,0.021057129,98.57745347
3860,-0.031,-0.041,-0.041,-0.530888031,0.022125244,98.57413417
3862,-0.032,-0.06,-0.06,-0.482625483,0.012084961,98.57253293
3864,-0.029,-0.043,-0.043,-0.579150579,0.006866455,98.5682074
3866,-0.027,0.006,0.006,-0.482625483,0.008575439,98.56974229
3868,-0.025,-0.036,-0.036,-0.627413127,0.012268066,98.56718515
3870,-0.027,-0.088,-0.088,-0.530888031,0.010925293,98.56976433
3872,-0.028,-0.038,-0.038,-0.579150579,0.003997803,98.56775447
3874,-0.027,-0.029,-0.029,-0.579150579,-0.003112793,98.56694263
3876,-0.026,-0.093,-0.093,-0.579150579,-0.006469727,98.56250095
3878,-0.026,-0.065,-0.065,-0.530888031,-0.004272461,98.55780951
3880,-0.031,0.018,0.018,-0.627413127,-0.001403809,98.55467531
3882,-0.034,-0.013,-0.013,-0.579150579,-0.001220703,98.55238437
3884,-0.038,-0.073,-0.073,-0.627413127,0.001403809,98.5480468
3886,-0.041,-0.043,-0.043,-0.579150579,-0.000823975,98.54638174
