Time,ECG Lead1,ECG Lead2,ECG Lead 3,BP1,Heart Beat,Temp 
2,0.074550129,-0.151490066,0.695807315,-0.482625483,0.002655029,98.6
4,0.055698372,-0.158940397,0.70205174,-0.530888031,0.001403809,98.59654594
6,0.084832905,-0.149006623,0.692239072,-0.434362934,0.006652832,98.59986898
8,0.061696658,-0.166390728,0.680642284,-0.627413127,0.003295898,98.5963665
10,0.042844901,-0.16307947,0.68956289,-0.579150579,0.019317627,98.59816196
12,0.092544987,-0.118377483,0.718108831,-0.675675676,-0.035095215,98.60066286
14,0.072836332,-0.074503311,0.813559322,-0.627413127,-0.05670166,98.59581176
16,0.091688089,-0.028145695,0.860838537,-0.627413127,0.175170898,98.59223423
18,0.120822622,-0.038907285,0.871543265,-0.579150579,0.161987305,98.58754078
20,0.092544987,-0.040562914,0.779661017,-0.434362934,-0.211029053,98.59062774
22,0.101113967,-0.012417219,0.667261374,-0.579150579,-0.643218994,98.5860992
24,0.162810626,0.011589404,0.630686887,-0.482625483,0.182342529,98.58776101
26,0.167095116,-0.002483444,0.645851918,-0.530888031,0.747283936,98.58732134
28,0.176520994,-0.021523179,0.680642284,-0.579150579,0.050598145,98.5903513
30,0.206512425,-0.072019868,0.670829616,-0.530888031,-0.366455078,98.58893569
32,0.231362468,-0.162251656,0.659232828,-0.579150579,-0.726379395,98.58418903
34,0.167952014,-0.176324503,0.772524532,-0.530888031,-0.086273193,98.58137491
36,0.144815767,-0.234271523,0.817127565,-0.482625483,0.459533691,98.58348406
38,0.139674379,-0.262417219,0.85102587,-0.530888031,0.608612061,98.58397327
40,0.124250214,-0.303807947,0.898305085,-0.530888031,0.311340332,98.5876702
42,0.159383033,-0.313741722,0.935771632,-0.482625483,0.092773438,98.59005856
44,0.142245073,-0.348509934,0.957181088,-0.482625483,-0.436462402,98.58609086
46,0.139674379,-0.373344371,0.987511151,-0.530888031,-0.631011963,98.59080519
48,0.179948586,-0.379966887,0.980374665,-0.434362934,-0.477661133,98.59319232
50,0.194515853,-0.381622517,0.982158787,-0.482625483,-0.126525879,98.58833089
52,0.201371037,-0.395695364,0.977698483,-0.482625483,0.502075195,98.59012211
54,0.245929734,-0.381622517,0.955396967,-0.482625483,0.502258301,98.58997714
56,0.252784919,-0.366721854,0.942908118,-0.386100386,0.621673584,98.58532432
58,0.258783205,-0.351821192,0.934879572,-0.482625483,0.290466309,98.58146872
60,0.301628106,-0.32615894,0.917930419,-0.434362934,-0.193023682,98.57723497
62,0.309340189,-0.301324503,0.898305085,-0.386100386,-0.514678955,98.57831321
64,0.303341902,-0.276490066,0.892952721,-0.579150579,-0.502563477,98.57564787
66,0.336760925,-0.228476821,0.883140054,-0.337837838,-0.142852783,98.57206799
68,0.329048843,-0.20115894,0.86440678,-0.482625483,-0.106994629,98.57236972
70,0.312767781,-0.178807947,0.868867083,-0.434362934,0.240783691,98.57667273
72,0.329905741,-0.148178808,0.857270294,-0.434362934,0.34866333,98.57784176
74,0.333333333,-0.116721854,0.842997324,-0.386100386,0.199310303,98.57974068
76,0.313624679,-0.09602649,0.844781445,-0.482625483,0.075317383,98.57708494
78,0.344473008,-0.062913907,0.834076717,-0.386100386,-0.046020508,98.57415338
80,0.346186804,-0.039735099,0.821587868,-0.579150579,-0.112335205,98.56952704
82,0.335904027,-0.017384106,0.833184657,-0.482625483,-0.088104248,98.57116069
84,0.349614396,0,0.829616414,-0.530888031,-0.022583008,98.57123323
86,0.345329906,0.009933775,0.822479929,-0.482625483,0.027648926,98.57109124
88,0.341902314,0.030629139,0.834968778,-0.530888031,0.0284729,98.57470819
90,0.358183376,0.037251656,0.82426405,-0.579150579,-0.003295898,98.57936334
92,0.359040274,0.055463576,0.820695807,-0.482625483,-0.032409668,98.58196022
94,0.340188518,0.060430464,0.835860839,-0.579150579,-0.039672852,98.57942701
96,0.355612682,0.05794702,0.825156111,-0.530888031,-0.019439697,98.58118969
98,0.363324764,0.067880795,0.816235504,-0.627413127,0.005706787,98.58378274
100,0.3479006,0.073675497,0.833184657,-0.579150579,0.024017334,98.58464464
102,0.371036847,0.07615894,0.818019625,-0.579150579,0.020965576,98.58786903
104,0.370179949,0.07781457,0.818019625,-0.579150579,0.01449585,98.59213738
106,0.36075407,0.081953642,0.820695807,-0.530888031,0.006103516,98.59351305
108,0.373607541,0.088576159,0.828724353,-0.579150579,0.008392334,98.58870243
110,0.375321337,0.089403974,0.822479929,-0.530888031,0.011901855,98.58554584
112,0.35646958,0.088576159,0.832292596,-0.627413127,0.009033203,98.58081324
114,0.372750643,0.089403974,0.834968778,-0.530888031,0.003112793,98.58516323
116,0.381319623,0.103476821,0.829616414,-0.627413127,-0.003112793,98.5850079
118,0.369323051,0.099337748,0.842105263,-0.530888031,-0.007873535,98.58795576
120,0.378748929,0.092715232,0.845673506,-0.579150579,-0.005340576,98.58752411
122,0.379605827,0.098509934,0.846565566,-0.579150579,-0.003295898,98.58746621
124,0.363324764,0.091887417,0.857270294,-0.579150579,0.000823975,98.58672335
126,0.370179949,0.094370861,0.859054416,-0.627413127,-0.000457764,98.59064107
128,0.391602399,0.105960265,0.85102587,-0.530888031,-0.00189209,98.59438392
130,0.364181662,0.09602649,0.860838537,-0.530888031,-0.00112915,98.59571542
132,0.378748929,0.098509934,0.86529884,-0.530888031,0.00112915,98.59363821
134,0.385604113,0.106788079,0.862622658,-0.482625483,0.004364014,98.591555
136,0.359897172,0.091059603,0.876003568,-0.530888031,0.005340576,98.58901
138,0.377892031,0.100165563,0.872435326,-0.530888031,0.004364014,98.59105348
140,0.377892031,0.105960265,0.883140054,-0.482625483,0.001403809,98.5937996
142,0.36503856,0.099337748,0.895628903,-0.434362934,0.00177002,98.59702613
144,0.380462725,0.101821192,0.902765388,-0.530888031,0.004638672,98.60008803
146,0.387317909,0.104304636,0.900981267,-0.434362934,0.005981445,98.59762574
148,0.371893745,0.110927152,0.910793934,-0.482625483,0.0050354,98.60063074
150,0.381319623,0.110927152,0.917930419,-0.530888031,0.000946045,98.60192782
152,0.405312768,0.118377483,0.914362177,-0.434362934,-0.001586914,98.59924284
154,0.377892031,0.113410596,0.926851026,-0.482625483,0.001312256,98.59805361
156,0.386461011,0.117549669,0.941123996,-0.482625483,0.000366211,98.59758562
158,0.40445587,0.14486755,0.954504906,-0.530888031,0.003814697,98.59759122
160,0.387317909,0.174668874,1.030330062,-0.482625483,0.001312256,98.59799693
162,0.399314482,0.238410596,1.127564674,-0.482625483,0.001586914,98.59644839
164,0.442159383,0.261589404,1.146297948,-0.482625483,0.000823975,98.59436269
166,0.415595544,0.264900662,1.152542373,-0.482625483,0.000549316,98.59639797
168,0.419880034,0.274006623,1.016057092,-0.530888031,0.00177002,98.60073876
170,0.449871465,0.283940397,0.94647636,-0.530888031,0.00579834,98.6016805
172,0.463581834,0.28807947,0.927743087,-0.579150579,0.003295898,98.60261141
174,0.484147386,0.268211921,0.934879572,-0.482625483,0.001708984,98.60499872
176,0.481576692,0.224337748,0.927743087,-0.482625483,0.000762939,98.60372515
178,0.491859469,0.125827815,0.888492417,-0.579150579,0,98.60325786
180,0.488431877,0.101821192,0.93220339,-0.530888031,0.002838135,98.60335161
182,0.401885176,0.081953642,1.008028546,-0.579150579,0.004058838,98.60763872
184,0.354755784,0.059602649,1.02765388,-0.482625483,0.001403809,98.6071466
186,0.357326478,0.052980132,1.042818912,-0.482625483,0.000183105,98.60852095
188,0.369323051,0.052152318,1.052631579,-0.482625483,0.000366211,98.60811459
190,0.346186804,0.051324503,1.060660125,-0.482625483,0.002166748,98.60865233
192,0.349614396,0.050496689,1.079393399,-0.482625483,0.004638672,98.60406466
194,0.358183376,0.055463576,1.078501338,-0.434362934,0.003601074,98.60708668
196,0.34361611,0.06705298,1.09455843,-0.579150579,0.000549316,98.6088018
198,0.345329906,0.065397351,1.101694915,-0.530888031,0,98.60580507
200,0.363324764,0.076986755,1.09455843,-0.579150579,0.000640869,98.60095094
202,0.340188518,0.060430464,1.114183764,-0.530888031,0.004364014,98.6035826
204,0.335047129,0.067880795,1.127564674,-0.530888031,0.00177002,98.60425771
206,0.35218509,0.074503311,1.131132917,-0.482625483,0.004577637,98.60579985
208,0.335047129,0.071192053,1.139161463,-0.530888031,-0.000244141,98.60714726
210,0.3479006,0.090231788,1.156110616,-0.530888031,-0.000244141,98.60949056
212,0.359040274,0.083609272,1.144513827,-0.482625483,-0.001403809,98.61336382
214,0.341045416,0.088576159,1.156110616,-0.530888031,0.000366211,98.61502291
216,0.33933162,0.079470199,1.173059768,-0.386100386,0.002075195,98.61122966
218,0.357326478,0.088576159,1.164139161,-0.530888031,0.007049561,98.61336702
220,0.353898886,0.099337748,1.165923283,-0.434362934,0.004364014,98.61283929
222,0.346186804,0.087748344,1.178412132,-0.482625483,0.002349854,98.61424911
224,0.362467866,0.095198675,1.177520071,-0.530888031,-0.000823975,98.61573807
226,0.351328192,0.091887417,1.181980375,-0.482625483,0.002471924,98.61752183
228,0.353041988,0.094370861,1.200713649,-0.530888031,0.002288818,98.6131101
230,0.36503856,0.110927152,1.177520071,-0.434362934,0.003997803,98.61034964
232,0.35646958,0.100165563,1.185548617,-0.627413127,0.000244141,98.60702945
234,0.349614396,0.115066225,1.212310437,-0.530888031,0.001220703,98.61131474
236,0.357326478,0.193708609,1.195361285,-0.482625483,0.002075195,98.61146705
238,0.227934876,0.410596026,1.786797502,-0.579150579,0.002166748,98.61320069
240,0.269065981,0.574503311,2.060660125,-0.482625483,0.003234863,98.61487869
242,0.705227078,1.482615894,0.776984835,-0.627413127,0.015716553,98.61069331
244,1.334190231,1.623344371,-0.001784121,-0.482625483,-0.034698486,98.60794404
246,1.371893745,0.103476821,-0.672613738,-0.530888031,0.001403809,98.60578593
248,0.942587832,-0.569536424,-0.214094558,-0.482625483,0.09942627,98.60992357
250,0.658954584,-0.54884106,0.438893845,-0.482625483,0.068908691,98.60721459
252,0.480719794,-0.42384106,0.884032114,-0.579150579,-0.185180664,98.60470079
254,0.384747215,-0.292218543,1.033898305,-0.482625483,-0.303131104,98.6064637
256,0.305912596,-0.160596026,1.133809099,-0.530888031,0.337982178,98.6079486
258,0.24764353,-0.150662252,1.205173952,-0.579150579,0.38659668,98.60998537
260,0.257926307,-0.129139073,1.204281891,-0.434362934,-0.212280273,98.61335641
262,0.236503856,-0.131622517,1.209634255,-0.579150579,-0.380889893,98.61562936
264,0.22193659,-0.150662252,1.227475468,-0.434362934,-0.164276123,98.61082371
266,0.232219366,-0.141556291,1.212310437,-0.530888031,0.19052124,98.61166117
268,0.221079692,-0.145695364,1.214986619,-0.530888031,0.423217773,98.61586994
270,0.205655527,-0.153145695,1.217662801,-0.530888031,0.294372559,98.61178672
272,0.221079692,-0.143211921,1.212310437,-0.530888031,-0.071502686,98.61233233
274,0.217652099,-0.145695364,1.206066012,-0.482625483,-0.416931152,98.61664035
276,0.207369323,-0.144039735,1.221231044,-0.482625483,-0.435699463,98.61363488
278,0.222793488,-0.132450331,1.210526316,-0.434362934,-0.189575195,98.61388808
280,0.220222793,-0.137417219,1.213202498,-0.482625483,0.139312744,98.61015547
282,0.203941731,-0.129966887,1.226583408,-0.482625483,0.399200439,98.61264274
284,0.236503856,-0.116721854,1.23015165,-0.482625483,0.431518555,98.61078943
286,0.23479006,-0.112582781,1.237288136,-0.434362934,0.247192383,98.60766117
288,0.216795201,-0.104304636,1.257805531,-0.434362934,-0.046325684,98.61246512
290,0.241645244,-0.096854305,1.261373773,-0.386100386,-0.296264648,98.61459339
292,0.241645244,-0.091059603,1.274754683,-0.530888031,-0.37677002,98.61784989
294,0.23479006,-0.091887417,1.305084746,-0.530888031,-0.251556396,98.61968209
296,0.244215938,-0.111754967,1.316681534,-0.530888031,-0.03326416,98.62157611
298,0.240788346,-0.116721854,1.340767172,-0.579150579,0.156280518,98.62188487
300,0.232219366,-0.148178808,1.37823372,-0.530888031,0.217315674,98.61877341
302,0.245072836,-0.156456954,1.413916146,-0.530888031,0.157226563,98.61870356
304,0.241645244,-0.19205298,1.435325602,-0.530888031,0.052062988,98.61929896
306,0.233933162,-0.220198675,1.475468332,-0.482625483,-0.027526855,98.62258176
308,0.264781491,-0.211092715,1.51382694,-0.530888031,-0.048309326,98.61961045
310,0.286203942,-0.177980132,1.606601249,-0.434362934,-0.027526855,98.61988791
312,0.284490146,-0.16307947,1.670829616,-0.579150579,-0.004455566,98.62296602
314,0.346186804,-0.147350993,1.664585192,-0.434362934,-0.004760742,98.62151707
316,0.347043702,-0.159768212,1.533452275,-0.579150579,-0.016967773,98.62199462
318,0.335904027,-0.151490066,1.429973238,-0.482625483,-0.026184082,98.624169
320,0.378748929,-0.110927152,1.331846566,-0.627413127,-0.022003174,98.62119412
322,0.407026564,-0.113410596,1.290811775,-0.482625483,-0.00112915,98.62263169
324,0.413881748,-0.094370861,1.306868867,-0.627413127,0.013214111,98.61763258
326,0.449871465,-0.073675497,1.300624442,-0.482625483,0.018676758,98.61776435
328,0.470437018,-0.09602649,1.238180196,-0.579150579,0.013793945,98.61846264
330,0.470437018,-0.136589404,1.231043711,-0.530888031,0.007324219,98.61353301
332,0.402742074,-0.124172185,1.288135593,-0.482625483,0.007049561,98.61745773
334,0.378748929,-0.091887417,1.288135593,-0.482625483,0.007049561,98.62078967
336,0.3479006,-0.083609272,1.289919715,-0.482625483,0.011138916,98.62354132
338,0.382176521,-0.041390728,1.288135593,-0.530888031,0.007049561,98.62642268
340,0.369323051,-0.024834437,1.285459411,-0.530888031,0.001983643,98.62515898
342,0.349614396,-0.014900662,1.301516503,-0.530888031,-0.003814697,98.62168209
344,0.364181662,0.014900662,1.300624442,-0.627413127,-0.001983643,98.6202047
346,0.373607541,0.033112583,1.296164139,-0.530888031,-0.005340576,98.62165568
348,0.358183376,0.037251656,1.308652988,-0.579150579,-0.000549316,98.62597504
350,0.362467866,0.065397351,1.307760928,-0.530888031,0.001525879,98.62190825
352,0.379605827,0.081125828,1.31132917,-0.482625483,-0.000183105,98.62429603
354,0.344473008,0.090231788,1.316681534,-0.627413127,-0.000183105,98.61984871
356,0.365895458,0.101821192,1.322033898,-0.530888031,-0.00100708,98.62242029
358,0.376178235,0.114238411,1.316681534,-0.386100386,0.000183105,98.62205518
360,0.351328192,0.11589404,1.32381802,-0.579150579,0.006103516,98.61750523
362,0.371893745,0.125,1.321141838,-0.386100386,0.004638672,98.62092552
364,0.371893745,0.14486755,1.319357716,-0.434362934,0.002746582,98.61757264
366,0.347043702,0.143211921,1.322925959,-0.530888031,0.000762939,98.61372338
368,0.366752356,0.151490066,1.329170384,-0.434362934,0.002166748,98.61143899
370,0.384747215,0.149834437,1.31132917,-0.530888031,-0.001312256,98.60958285
372,0.348757498,0.153145695,1.320249777,-0.482625483,0.003692627,98.61064375
374,0.372750643,0.157284768,1.325602141,-0.482625483,-0.000823975,98.61241841
376,0.383890317,0.166390728,1.318465656,-0.434362934,0.001525879,98.61729484
378,0.367609254,0.163907285,1.327386262,-0.482625483,0.001708984,98.62222744
380,0.382176521,0.167218543,1.32471008,-0.482625483,0.002929688,98.62480281
382,0.391602399,0.166390728,1.319357716,-0.434362934,-6.10352E-05,98.6225534
384,0.378748929,0.161423841,1.32381802,-0.482625483,0.002929688,98.62709354
386,0.384747215,0.177152318,1.32471008,-0.434362934,0.00112915,98.62620436
388,0.383033419,0.177152318,1.319357716,-0.434362934,0.001525879,98.6233706
390,0.387317909,0.179635762,1.315789474,-0.530888031,0.000823975,98.6246619
392,0.375321337,0.184602649,1.320249777,-0.482625483,0.001220703,98.61981059
394,0.405312768,0.199503311,1.314005352,-0.530888031,0.003601074,98.61524359
396,0.381319623,0.193708609,1.316681534,-0.482625483,0.007324219,98.61204621
398,0.40017138,0.206953642,1.315789474,-0.482625483,0.001983643,98.60905086
400,0.424164524,0.218543046,1.31132917,-0.434362934,-0.000823975,98.61124443
402,0.386461011,0.213576159,1.315789474,-0.482625483,6.10352E-05,98.61067311
404,0.389031705,0.216887417,1.315789474,-0.482625483,0.004577637,98.61412804
406,0.425021422,0.219370861,1.305084746,-0.482625483,0.003997803,98.61302594
408,0.398457584,0.219370861,1.314897413,-0.434362934,0.001525879,98.61640146
410,0.40017138,0.222682119,1.322925959,-0.482625483,-0.002075195,98.61888565
412,0.424164524,0.229304636,1.313113292,-0.482625483,-0.00189209,98.61972426
414,0.413881748,0.224337748,1.314005352,-0.482625483,0.000457764,98.61632999
416,0.402742074,0.213576159,1.319357716,-0.530888031,0.002288818,98.61661839
418,0.426735219,0.224337748,1.313113292,-0.434362934,0.00100708,98.6162451
420,0.395886889,0.224337748,1.317573595,-0.530888031,0.006164551,98.61504054
422,0.410454156,0.23013245,1.330954505,-0.482625483,0.006469727,98.61097284
424,0.438731791,0.235927152,1.320249777,-0.482625483,0.001983643,98.6085643
426,0.401028278,0.224337748,1.321141838,-0.530888031,0,98.60692266
428,0.407026564,0.224337748,1.326494202,-0.579150579,0.001220703,98.60567378
430,0.428449015,0.238410596,1.327386262,-0.530888031,0.00100708,98.60213638
432,0.402742074,0.22102649,1.336306869,-0.530888031,0.006561279,98.60030408
434,0.40874036,0.226821192,1.33719893,-0.530888031,0.003875732,98.59811633
436,0.427592117,0.224337748,1.328278323,-0.530888031,0.00189209,98.60131757
438,0.401885176,0.219370861,1.350579839,-0.530888031,0.002838135,98.59973847
440,0.418166238,0.204470199,1.340767172,-0.579150579,0.003692627,98.60345849
442,0.428449015,0.214403974,1.343443354,-0.482625483,0.000457764,98.60113878
444,0.42159383,0.213576159,1.347011597,-0.579150579,-0.000762939,98.6038931
446,0.410454156,0.206953642,1.355932203,-0.530888031,-0.000946045,98.60498519
448,0.433590403,0.20281457,1.340767172,-0.482625483,0.003234863,98.60016488
450,0.407026564,0.206953642,1.354148082,-0.530888031,0.004364014,98.60217999
452,0.409597258,0.231788079,1.386262266,-0.434362934,0.003295898,98.59733752
454,0.454155955,0.27897351,1.454950937,-0.482625483,0.001983643,98.59917645
456,0.416452442,0.323675497,1.524531668,-0.482625483,0.00112915,98.60295546
458,0.444730077,0.333609272,1.559322034,-0.482625483,0.003601074,98.60227352
460,0.447300771,0.338576159,1.528099911,-0.482625483,0.003234863,98.60358695
462,0.436161097,0.364238411,1.395182872,-0.482625483,0.000457764,98.60444736
464,0.448157669,0.359271523,1.33809099,-0.530888031,0.00177002,98.60172147
466,0.493573265,0.357615894,1.307760928,-0.434362934,0.002166748,98.60456802
468,0.490145673,0.336092715,1.321141838,-0.434362934,0.005126953,98.60244438
470,0.491859469,0.302152318,1.319357716,-0.434362934,0.003051758,98.60668814
472,0.550985433,0.218543046,1.252453167,-0.482625483,0.000640869,98.60467289
474,0.504712939,0.189569536,1.298840321,-0.434362934,0.001586914,98.60503592
476,0.412167952,0.174668874,1.377341659,-0.434362934,0.002075195,98.6033724
478,0.431019709,0.151490066,1.361284567,-0.434362934,0.005981445,98.60074534
480,0.393316195,0.132450331,1.371989295,-0.482625483,0.002532959,98.60119773
482,0.380462725,0.135761589,1.396966994,-0.482625483,0.000183105,98.59727459
484,0.396743787,0.140728477,1.39250669,-0.530888031,0.000823975,98.59364614
486,0.386461011,0.145695364,1.39250669,-0.482625483,0.001312256,98.58959041
488,0.386461011,0.138245033,1.407671722,-0.579150579,0.001525879,98.58769925
490,0.411311054,0.156456954,1.399643176,-0.482625483,0.003112793,98.59082561
492,0.398457584,0.156456954,1.394290812,-0.579150579,0.002471924,98.59096119
494,0.383890317,0.13410596,1.402319358,-0.530888031,0.003112793,98.59462595
496,0.412167952,0.159768212,1.414808207,-0.530888031,0.000183105,98.59943083
498,0.396743787,0.197019868,1.396074933,-0.530888031,0,98.59769735
500,0.273350471,0.390728477,1.884924175,-0.530888031,0.003295898,98.59489352
502,0.269922879,0.530629139,2.497769848,-0.530888031,0.004943848,98.59507576
504,0.623821765,1.287251656,1.305976806,-0.530888031,0.002655029,98.59360582
506,1.245072836,1.861754967,0.080285459,-0.530888031,0.002075195,98.59720059
508,1.583547558,0.378311258,-0.687778769,-0.530888031,0.001312256,98.5948008
510,1.058269066,-0.475165563,-0.290811775,-0.579150579,0.002655029,98.59823801
512,0.748928877,-0.504139073,0.509366637,-0.579150579,0.002838135,98.59906602
514,0.580976864,-0.40397351,0.991971454,-0.579150579,0.003692627,98.60126008
516,0.457583548,-0.280629139,1.195361285,-0.579150579,0.000823975,98.59969531
518,0.35646958,-0.137417219,1.322033898,-0.627413127,0.000183105,98.59478805
520,0.330762639,-0.066225166,1.384478145,-0.675675676,-0.000244141,98.59171252
522,0.310197087,-0.050496689,1.393398751,-0.579150579,0,98.5917864
524,0.296486718,-0.06705298,1.410347904,-0.675675676,6.10352E-05,98.58702882
526,0.305912596,-0.055463576,1.412132025,-0.579150579,0.003295898,98.58752923
528,0.293916024,-0.052152318,1.404103479,-0.627413127,0.002166748,98.58529107
530,0.272493573,-0.064569536,1.417484389,-0.579150579,0.003295898,98.58725348
532,0.311910883,-0.043874172,1.398751115,-0.482625483,0.002746582,98.59106701
534,0.28706084,-0.045529801,1.403211418,-0.530888031,0.00112915,98.58631382
536,0.269065981,-0.046357616,1.410347904,-0.482625483,0.00112915,98.58472589
538,0.296486718,-0.038907285,1.40499554,-0.530888031,0.003692627,98.58393995
540,0.285347044,-0.049668874,1.407671722,-0.482625483,0.00177002,98.57974006
542,0.263924593,-0.040562914,1.424620874,-0.530888031,0.001983643,98.5755336
544,0.286203942,-0.039735099,1.428189117,-0.482625483,-0.000244141,98.57125736
546,0.299057412,-0.023178808,1.43264942,-0.434362934,0.001983643,98.57526077
548,0.273350471,-0.019039735,1.467439786,-0.482625483,0.002288818,98.57995385
550,0.294772922,-0.025662252,1.470115968,-0.530888031,0.002655029,98.57886692
552,0.3041988,-0.006622517,1.479036574,-0.482625483,0.00112915,98.57700277
554,0.292202228,-0.012417219,1.515611062,-0.386100386,0.002838135,98.57753591
556,0.294772922,-0.00910596,1.54058876,-0.482625483,0.003234863,98.58045639
558,0.294772922,-0.010761589,1.561998216,-0.434362934,0.004180908,98.58343953
560,0.280205656,-0.033112583,1.584299732,-0.434362934,0.00177002,98.58707211
562,0.3041988,-0.043046358,1.611953613,-0.482625483,0.003875732,98.59005174
564,0.300771208,-0.059602649,1.642283675,-0.386100386,0.001708984,98.5851155
566,0.29991431,-0.082781457,1.680642284,-0.434362934,0.001220703,98.58931451
568,0.315338475,-0.117549669,1.705619982,-0.434362934,0.001312256,98.58449414
570,0.302485004,-0.150662252,1.714540589,-0.482625483,0.003692627,98.5797883
572,0.299057412,-0.176324503,1.742194469,-0.386100386,0.003234863,98.58190282
574,0.321336761,-0.183774834,1.732381802,-0.482625483,0.00177002,98.58228696
576,0.344473008,-0.192880795,1.723461195,-0.530888031,0.00112915,98.58253285
578,0.330762639,-0.203642384,1.71632471,-0.482625483,0.003509521,98.58255525
580,0.353898886,-0.195364238,1.698483497,-0.579150579,0.016967773,98.57821197
582,0.365895458,-0.189569536,1.670829616,-0.482625483,-0.02822876,98.57551238
584,0.361610968,-0.166390728,1.6485281,-0.579150579,-0.067016602,98.57168278
586,0.388174807,-0.146523179,1.615521855,-0.530888031,0.170318604,98.57658049
588,0.395886889,-0.119205298,1.59500446,-0.530888031,0.16784668,98.57228566
590,0.378748929,-0.091887417,1.572702944,-0.579150579,-0.180053711,98.56788589
592,0.384747215,-0.074503311,1.552185549,-0.482625483,-0.641235352,98.56950167
594,0.389031705,-0.034768212,1.536128457,-0.579150579,0.165802002,98.56794224
596,0.36503856,-0.006622517,1.524531668,-0.530888031,0.725036621,98.56422738
598,0.372750643,0.024834437,1.523639607,-0.627413127,0.101074219,98.56559873
600,0.383890317,0.058774834,1.512042819,-0.579150579,-0.354248047,98.56806361
602,0.36503856,0.132450331,1.598572703,-0.627413127,-0.72555542,98.57111629
604,0.368466153,0.180463576,1.655664585,-0.627413127,-0.121368408,98.56880656
606,0.395886889,0.232615894,1.690454951,-0.675675676,0.445922852,98.56814636
608,0.374464439,0.251655629,1.636039251,-0.627413127,0.615112305,98.56716442
610,0.355612682,0.253311258,1.512042819,-0.627413127,0.310211182,98.56824585
612,0.373607541,0.283112583,1.460303301,-0.579150579,0.104705811,98.57094672
614,0.372750643,0.302152318,1.413024086,-0.627413127,-0.424438477,98.57535796
616,0.387317909,0.296357616,1.421944692,-0.530888031,-0.609954834,98.57167261
618,0.398457584,0.283112583,1.437109723,-0.482625483,-0.430847168,98.56922983
620,0.411311054,0.244205298,1.413916146,-0.482625483,-0.073120117,98.56801294
622,0.432733505,0.187913907,1.394290812,-0.530888031,0.305053711,98.5729503
624,0.435304199,0.185430464,1.420160571,-0.530888031,0.578369141,98.57135981
626,0.333333333,0.184602649,1.497769848,-0.530888031,0.563049316,98.57535533
628,0.330762639,0.196192053,1.497769848,-0.579150579,0.254516602,98.57273015
630,0.329048843,0.181291391,1.48706512,-0.530888031,-0.188446045,98.56993016
632,0.309340189,0.183774834,1.504014273,-0.530888031,-0.496368408,98.57484092
634,0.316195373,0.196192053,1.51293488,-0.530888031,-0.668121338,98.57935197
636,0.327335047,0.196192053,1.504906334,-0.530888031,-0.191558838,98.58073414
638,0.303341902,0.190397351,1.520963426,-0.434362934,-0.077056885,98.58077545
640,0.317052271,0.193708609,1.518287244,-0.530888031,0.304962158,98.57935663
642,0.329048843,0.203642384,1.512042819,-0.434362934,0.262054443,98.58204116
644,0.30848329,0.209437086,1.520963426,-0.482625483,0.22277832,98.58488478
646,0.319622965,0.21192053,1.529884032,-0.434362934,0.09753418,98.58017397
648,0.327335047,0.223509934,1.528099911,-0.386100386,-0.044311523,98.57569838
650,0.311910883,0.229304636,1.533452275,-0.434362934,-0.116210938,98.57393257
652,0.316195373,0.230960265,1.548617306,-0.386100386,-0.09085083,98.57692943
654,0.325621251,0.230960265,1.535236396,-0.386100386,-0.022369385,98.57823173
656,0.306769494,0.226821192,1.54058876,-0.482625483,0.027832031,98.58305971
658,0.321336761,0.235099338,1.546833185,-0.386100386,0.030212402,98.5796422
660,0.325621251,0.237582781,1.542372881,-0.386100386,-0.00100708,98.58080897
662,0.306769494,0.232615894,1.546833185,-0.434362934,-0.030883789,98.57889614
664,0.305055698,0.225993377,1.547725245,-0.434362934,-0.039367676,98.57474692
666,0.323050557,0.237582781,1.539696699,-0.434362934,-0.019897461,98.57851522
668,0.297343616,0.228476821,1.538804639,-0.434362934,0.007049561,98.57942223
670,0.293916024,0.226821192,1.543264942,-0.482625483,0.021057129,98.57745347
672,0.315338475,0.239238411,1.532560214,-0.530888031,0.022125244,98.57413417
674,0.296486718,0.238410596,1.538804639,-0.482625483,0.012084961,98.57253293
676,0.29991431,0.243377483,1.536128457,-0.579150579,0.006866455,98.5682074
678,0.306769494,0.245033113,1.525423729,-0.482625483,0.008575439,98.56974229
680,0.29562982,0.246688742,1.520963426,-0.627413127,0.012268066,98.56718515
682,0.293059126,0.241721854,1.528099911,-0.530888031,0.010925293,98.56976433
684,0.3041988,0.251655629,1.51293488,-0.579150579,0.003997803,98.56775447
686,0.294772922,0.248344371,1.517395183,-0.579150579,-0.003112793,98.56694263
688,0.289631534,0.25,1.518287244,-0.579150579,-0.006469727,98.56250095
690,0.305055698,0.253311258,1.506690455,-0.530888031,-0.004272461,98.55780951
692,0.281919452,0.248344371,1.51293488,-0.627413127,-0.001403809,98.55467531
694,0.279348757,0.243377483,1.516503122,-0.579150579,-0.001220703,98.55238437
696,0.296486718,0.252483444,1.507582516,-0.627413127,0.001403809,98.5480468
698,0.28277635,0.255794702,1.515611062,-0.579150579,-0.000823975,98.54638174
700,0.28277635,0.260761589,1.528991971,-0.675675676,0.002288818,98.5418808
702,0.298200514,0.265728477,1.522747547,-0.579150579,0.001708984,98.53789388
704,0.279348757,0.269039735,1.524531668,-0.530888031,0.004180908,98.53361258
706,0.272493573,0.267384106,1.536128457,-0.579150579,0.002349854,98.53765771
708,0.284490146,0.267384106,1.531668153,-0.434362934,0.003417969,98.53577569
710,0.270779777,0.266556291,1.536128457,-0.579150579,0.003814697,98.53669338
712,0.267352185,0.268211921,1.552185549,-0.579150579,0.002166748,98.53546963
714,0.272493573,0.26986755,1.545049063,-0.482625483,0.004180908,98.53998527
716,0.251928021,0.265728477,1.551293488,-0.627413127,0.003601074,98.54240922
718,0.244215938,0.264900662,1.561106155,-0.482625483,0.001220703,98.54628015
720,0.252784919,0.274834437,1.558429973,-0.434362934,0.001312256,98.54726911
722,0.240788346,0.273178808,1.561106155,-0.434362934,0.000549316,98.54916541
724,0.22193659,0.274006623,1.573595004,-0.434362934,0.003509521,98.54807658
726,0.228791774,0.276490066,1.566458519,-0.482625483,0.00177002,98.54530931
728,0.214224507,0.276490066,1.570918822,-0.482625483,0.004577637,98.54162191
730,0.193658955,0.268211921,1.582515611,-0.530888031,0.00100708,98.5383467
732,0.209083119,0.276490066,1.572702944,-0.434362934,0.001586914,98.54273268
734,0.187660668,0.275662252,1.58073149,-0.530888031,-0.002075195,98.5380775
736,0.171379606,0.275662252,1.586975914,-0.386100386,0.00112915,98.54187307
738,0.179948586,0.276490066,1.584299732,-0.434362934,0.003112793,98.54209634
740,0.159383033,0.271523179,1.589652096,-0.434362934,0.001403809,98.54517881
742,0.135389889,0.271523179,1.603033006,-0.482625483,0.002166748,98.54465461
744,0.149100257,0.316225166,1.642283675,-0.337837838,0.003601074,98.54312
746,0.119965724,0.368377483,1.735057984,-0.434362934,0.004180908,98.54569151
748,0.120822622,0.401490066,1.787689563,-0.482625483,0.002075195,98.54429364
750,0.12596401,0.386589404,1.79750223,-0.482625483,0.004455566,98.5448597
752,0.093401885,0.392384106,1.66190901,-0.482625483,0.002471924,98.54874692
754,0.095972579,0.44205298,1.603033006,-0.482625483,-0.000244141,98.55214856
756,0.114824336,0.43294702,1.570918822,-0.482625483,-6.10352E-05,98.54958883
758,0.1302485,0.438741722,1.549509367,-0.530888031,-6.10352E-05,98.54894501
760,0.11311054,0.412251656,1.565566459,-0.386100386,0.002838135,98.55223054
762,0.095115681,0.481788079,1.631578947,-0.530888031,0.004180908,98.54875757
764,-0.002570694,0.596854305,2.398751115,-0.434362934,0.006286621,98.55133711
766,0.066838046,0.909768212,2.144513827,-0.530888031,0.001403809,98.5551022
768,0.525278492,1.882450331,0.63514719,-0.530888031,0.003051758,98.55512343
770,1.075407027,1.216887417,-0.073148974,-0.482625483,0.000762939,98.5558261
772,0.775492716,-0.108443709,-0.455842997,-0.627413127,-0.000244141,98.55934092
774,0.453299057,-0.42384106,0.435325602,-0.530888031,0.002838135,98.56418735
776,0.199657241,-0.392384106,0.995539697,-0.627413127,0.003875732,98.56708948
778,0.035132819,-0.267384106,1.362176628,-0.723938224,0.002746582,98.56559631
780,-0.077977721,-0.119205298,1.532560214,-0.482625483,0.001586914,98.56561536
782,-0.149100257,-0.031456954,1.592328278,-0.675675676,0.001312256,98.56316748
784,-0.208226221,-0.046357616,1.6485281,-0.530888031,0.001220703,98.5632662
786,-0.218508997,-0.034768212,1.666369313,-0.627413127,0.001525879,98.5590524
788,-0.232219366,-0.033940397,1.654772525,-0.627413127,0.002349854,98.55461139
790,-0.261353899,-0.039735099,1.682426405,-0.482625483,0.002838135,98.55596127
792,-0.257069409,-0.038907285,1.681534344,-0.579150579,0.001220703,98.5571303
794,-0.276778063,-0.028145695,1.67618198,-0.482625483,0.00177002,98.55294504
796,-0.307626392,-0.038907285,1.687778769,-0.579150579,0.000823975,98.55404024
798,-0.29562982,-0.023178808,1.690454951,-0.530888031,0.004638672,98.55448695
800,-0.307626392,-0.017384106,1.685102587,-0.530888031,0.004577637,98.55804617
802,-0.330762639,-0.017384106,1.692239072,-0.579150579,0.004364014,98.55947306
804,-0.321336761,-0.012417219,1.692239072,-0.434362934,0.001403809,98.55718939
806,-0.323050557,-0.003311258,1.691347012,-0.482625483,6.10352E-05,98.5532569
808,-0.335047129,0.004966887,1.7029438,-0.434362934,0.002166748,98.54886203
810,-0.324764353,0.008278146,1.707404103,-0.434362934,0.003875732,98.55008086
812,-0.329905741,0.021523179,1.717216771,-0.482625483,0.013977051,98.55207156
814,-0.35218509,0.019039735,1.727029438,-0.482625483,-0.03012085,98.54982096
816,-0.340188518,0.029801325,1.738626227,-0.482625483,-0.005340576,98.54904065
818,-0.357326478,0.014072848,1.747546833,-0.386100386,0.097076416,98.54769888
820,-0.389888603,0.024006623,1.781445138,-0.482625483,0.074066162,98.54352047
822,-0.375321337,0.013245033,1.799286351,-0.434362934,-0.16885376,98.53921817
824,-0.386461011,-0.005794702,1.818019625,-0.482625483,-0.317077637,98.53542706
826,-0.427592117,-0.030629139,1.871543265,-0.434362934,0.310699463,98.53720559
828,-0.41302485,-0.050496689,1.897413024,-0.434362934,0.39642334,98.53439496
830,-0.413881748,-0.069536424,1.928635147,-0.386100386,-0.182220459,98.53176775
832,-0.431019709,-0.091059603,1.963425513,-0.482625483,-0.38269043,98.5268541
834,-0.418166238,-0.110927152,1.971454059,-0.434362934,-0.177825928,98.52912521
836,-0.414738646,-0.125,1.971454059,-0.530888031,0.167327881,98.52973556
838,-0.424164524,-0.146523179,1.97234612,-0.386100386,0.417510986,98.53025528
840,-0.418166238,-0.149006623,1.966993756,-0.482625483,0.305419922,98.53267782
842,-0.380462725,-0.13410596,1.941123996,-0.434362934,-0.049468994,98.53592415
844,-0.399314482,-0.138245033,1.927743087,-0.530888031,-0.401550293,98.5348581
846,-0.371893745,-0.108443709,1.893844781,-0.434362934,-0.441436768,98.53121753
848,-0.362467866,-0.087748344,1.853702052,-0.482625483,-0.207763672,98.52817496
850,-0.384747215,-0.072847682,1.828724353,-0.482625483,0.124237061,98.53037796
852,-0.371893745,-0.043874172,1.804638715,-0.482625483,0.388336182,98.53207431
854,-0.365895458,-0.017384106,1.762711864,-0.482625483,0.432006836,98.5276728
856,-0.40445587,-0.009933775,1.752007136,-0.482625483,0.25680542,98.52651557
858,-0.395029991,0.026490066,1.724353256,-0.530888031,-0.027069092,98.52642793
860,-0.402742074,0.050496689,1.707404103,-0.579150579,-0.2862854,98.52916955
862,-0.438731791,0.071192053,1.700267618,-0.579150579,-0.374603271,98.52564766
864,-0.447300771,0.085264901,1.692239072,-0.627413127,-0.262817383,98.525503
866,-0.443873179,0.113410596,1.677074041,-0.579150579,-0.044250488,98.52122135
868,-0.479005998,0.134933775,1.685102587,-0.627413127,0.147796631,98.52409578
870,-0.48243359,0.148178808,1.677074041,-0.579150579,0.219512939,98.5230331
872,-0.47386461,0.168874172,1.673505798,-0.579150579,0.16192627,98.52039472
874,-0.496143959,0.185430464,1.679750223,-0.530888031,0.057769775,98.51620039
876,-0.488431877,0.20281457,1.683318466,-0.579150579,-0.023834229,98.51199044
878,-0.481576692,0.21192053,1.677966102,-0.434362934,-0.04699707,98.51626473
880,-0.509854327,0.219370861,1.681534344,-0.579150579,-0.02935791,98.51331188
882,-0.502999143,0.234271523,1.685102587,-0.530888031,-0.007873535,98.51787769
884,-0.497857755,0.24089404,1.669937556,-0.579150579,-0.006561279,98.51627511
886,-0.523564696,0.233443709,1.681534344,-0.530888031,-0.016571045,98.52087477
888,-0.51756641,0.235099338,1.687778769,-0.482625483,-0.02923584,98.51930623
890,-0.497000857,0.249172185,1.679750223,-0.530888031,-0.021148682,98.51494046
892,-0.52613539,0.269039735,1.704727921,-0.434362934,-0.003295898,98.51606519
894,-0.524421594,0.312086093,1.799286351,-0.482625483,0.013793945,98.51662133
896,-0.497000857,0.348509934,1.843889384,-0.482625483,0.014373779,98.52068583
898,-0.499571551,0.359271523,1.876895629,-0.482625483,0.011810303,98.51769808
900,-0.519280206,0.365066225,1.852809991,-0.530888031,0.006347656,98.52057502
902,-0.494430163,0.399006623,1.694915254,-0.434362934,0.006744385,98.51905221
904,-0.497857755,0.400662252,1.644959857,-0.579150579,0.008636475,98.52377372
906,-0.471293916,0.393211921,1.622658341,-0.482625483,0.010375977,98.52713424
908,-0.455012853,0.378311258,1.625334523,-0.482625483,0.00579834,98.5292523
910,-0.45672665,0.342715232,1.617305977,-0.434362934,0.00177002,98.52640129
912,-0.428449015,0.238410596,1.570026762,-0.386100386,-0.001708984,98.52155577
914,-0.459297344,0.243377483,1.625334523,-0.482625483,-0.003051758,98.5186562
916,-0.549271637,0.206125828,1.681534344,-0.386100386,-0.002838135,98.51902089
918,-0.571550985,0.176324503,1.680642284,-0.530888031,0.00112915,98.51510547
920,-0.529562982,0.197847682,1.681534344,-0.434362934,-0.002655029,98.51864309
922,-0.564695801,0.189569536,1.700267618,-0.482625483,-0.001586914,98.5227516
924,-0.570694087,0.185430464,1.695807315,-0.530888031,0.000823975,98.52108885
926,-0.556126821,0.185430464,1.704727921,-0.386100386,0.00112915,98.52078028
928,-0.583547558,0.178807947,1.706512043,-0.434362934,0.005401611,98.51580925
930,-0.57412168,0.183774834,1.710080285,-0.579150579,0.004821777,98.51391833
932,-0.560411311,0.197847682,1.691347012,-0.434362934,0.002746582,98.51377056
934,-0.576692374,0.191225166,1.703835861,-0.482625483,0.000457764,98.51139221
936,-0.581833762,0.20115894,1.714540589,-0.482625483,0.003234863,98.51322333
938,-0.562982005,0.207781457,1.707404103,-0.386100386,0.003875732,98.51733519
940,-0.58697515,0.209437086,1.707404103,-0.482625483,0.006286621,98.5180402
942,-0.59125964,0.204470199,1.719892953,-0.386100386,0.003875732,98.51569298
944,-0.580119966,0.208609272,1.714540589,-0.579150579,0.000244141,98.5199777
946,-0.59125964,0.220198675,1.703835861,-0.482625483,6.10352E-05,98.51562015
948,-0.597257926,0.225165563,1.711864407,-0.530888031,0.001312256,98.51688316
950,-0.575835476,0.23013245,1.697591436,-0.579150579,0.001403809,98.52136595
952,-0.594687232,0.224337748,1.694023194,-0.434362934,0.004180908,98.52152988
954,-0.598971722,0.223509934,1.690454951,-0.627413127,0.004638672,98.52609692
956,-0.571550985,0.238410596,1.67528992,-0.530888031,0.003112793,98.52381713
958,-0.603256213,0.232615894,1.668153434,-0.627413127,-0.000549316,98.52408703
960,-0.606683805,0.242549669,1.671721677,-0.579150579,0.000549316,98.52819896
962,-0.596401028,0.243377483,1.6485281,-0.530888031,-0.000640869,98.52534581
964,-0.620394173,0.247516556,1.645851918,-0.530888031,0.003051758,98.52861366
966,-0.632390746,0.248344371,1.642283675,-0.579150579,0.005584717,98.52499694
968,-0.628106255,0.258278146,1.628902765,-0.530888031,0.003234863,98.52437445
970,-0.65638389,0.257450331,1.619090098,-0.579150579,-0.000640869,98.52812728
972,-0.66066838,0.262417219,1.614629795,-0.530888031,0.001586914,98.5301704
974,-0.640102828,0.274006623,1.593220339,-0.579150579,0.004058838,98.53014063
976,-0.680377035,0.285596026,1.587867975,-0.434362934,0.005584717,98.53123659
978,-0.696658098,0.275662252,1.58162355,-0.579150579,0.00112915,98.52701488
980,-0.685518423,0.293046358,1.559322034,-0.530888031,0.000244141,98.52442921
982,-0.711225364,0.294701987,1.542372881,-0.482625483,-0.001983643,98.51968705
984,-0.721508141,0.302152318,1.54058876,-0.530888031,0.000946045,98.52315182
986,-0.713796058,0.312086093,1.520963426,-0.530888031,0.00100708,98.51830044
988,-0.742073693,0.313741722,1.501338091,-0.530888031,-0.000183105,98.5188046
990,-0.762639246,0.319536424,1.494201606,-0.434362934,0.00112915,98.51500132
992,-0.76092545,0.319536424,1.45941124,-0.530888031,0.001403809,98.51588081
994,-0.782347901,0.317880795,1.429081178,-0.434362934,0.001983643,98.51710292
996,-0.810625536,0.312913907,1.404103479,-0.530888031,0.003417969,98.51957309
998,-0.81319623,0.314569536,1.367528992,-0.434362934,0.002288818,98.51767237
1000,-0.842330763,0.312086093,1.336306869,-0.482625483,0.004364014,98.52183741
1002,-0.877463582,0.29884106,1.318465656,-0.482625483,0.004180908,98.52466007
1004,-0.880034276,0.29884106,1.284567351,-0.579150579,0.000823975,98.52067054
1006,-0.905741217,0.303807947,1.237288136,-0.530888031,0.000946045,98.51848159
1008,-0.924592973,0.304635762,1.217662801,-0.530888031,0.003601074,98.52255664
1010,-0.915167095,0.304635762,1.171275647,-0.482625483,0.005340576,98.51866751
1012,-0.94344473,0.309602649,1.125780553,-0.482625483,0.0050354,98.52156571
1014,-0.971722365,0.299668874,1.090990187,-0.530888031,-0.000183105,98.5175885
1016,-0.961439589,0.306291391,1.059768064,-0.530888031,-0.002349854,98.52026794
1018,-0.980291345,0.305463576,1.006244425,-0.434362934,-0.00177002,98.5218885
1020,-1.001713796,0.298013245,0.976806423,-0.482625483,0.001312256,98.52461948
1022,-0.999143102,0.306291391,0.934879572,-0.482625483,0.002532959,98.52893929
1024,-1.023993145,0.363410596,0.884032114,-0.434362934,0.002929688,98.52570813
1026,-1.157669237,0.595198675,1.342551293,-0.530888031,0.003295898,98.52091235
1028,-1.137103685,0.756622517,1.678858162,-0.482625483,0.001525879,98.52424874
1030,-0.763496144,1.604304636,0.462979483,-0.579150579,0.000946045,98.52398068
1032,-0.167095116,1.823675497,-0.394290812,-0.627413127,0.002075195,98.52006714
1034,-0.046272494,0.419701987,-0.681534344,-0.482625483,0.00112915,98.51595768
1036,-0.510711225,-0.313741722,-0.623550401,-0.675675676,0.004272461,98.51210898
1038,-0.790059983,-0.245860927,-0.020517395,-0.482625483,-0.000366211,98.50878871
1040,-0.931448158,-0.114238411,0.370205174,-0.530888031,0.003997803,98.51351381
1042,-1.075407027,-0.004966887,0.479928635,-0.482625483,0.002746582,98.51137385
1044,-1.176520994,0.14486755,0.396966994,-0.579150579,0.004364014,98.51236409
1046,-1.192802057,0.16307947,0.339875112,-0.482625483,0.00189209,98.51588618
1048,-1.203084833,0.154801325,0.268510259,-0.482625483,0.004180908,98.51333403
1050,-1.208226221,0.132450331,0.252453167,-0.530888031,0.00100708,98.51560571
1052,-1.190231362,0.107615894,0.198929527,-0.579150579,0.002075195,98.51461362
1054,-1.16966581,0.024006623,0.092774309,-0.530888031,0.000762939,98.51271962
1056,-1.215081405,-0.015728477,0.090098127,-0.627413127,0.003875732,98.51425761
1058,-1.279348757,-0.031456954,0.093666369,-0.627413127,0.003051758,98.51317587
1060,-1.293916024,-0.04718543,0.044603033,-0.579150579,0.003601074,98.50936923
1062,-1.318766067,-0.081953642,0.011596789,-0.579150579,0.001525879,98.51415461
1064,-1.298200514,-0.075331126,-0.02676182,-0.482625483,0.002166748,98.51433713
1066,-1.298200514,-0.078642384,-0.074933095,-0.579150579,0.000366211,98.51441481
1068,-1.305055698,-0.081953642,-0.104371097,-0.482625483,0.00189209,98.51266503
1070,-1.279348757,-0.084437086,-0.14808207,-0.482625483,0.002655029,98.50963775
1072,-1.268209083,-0.090231788,-0.187332739,-0.530888031,0.003692627,98.51326668
1074,-1.263924593,-0.087748344,-0.21587868,-0.482625483,0.002471924,98.51094536
1076,-1.224507284,-0.085264901,-0.251561106,-0.530888031,0.000366211,98.51133217
1078,-1.204798629,-0.086092715,-0.291703836,-0.482625483,-0.000457764,98.51184682
1080,-1.209083119,-0.101821192,-0.305084746,-0.482625483,0.002929688,98.51647939
1082,-1.166238218,-0.101821192,-0.32471008,-0.530888031,0.004577637,98.51417515
1084,-1.151670951,-0.108443709,-0.352363961,-0.337837838,0.003875732,98.51183233
1086,-1.156812339,-0.136589404,-0.367528992,-0.579150579,0.000640869,98.50993222
1088,-1.119108826,-0.155629139,-0.377341659,-0.337837838,0.001586914,98.5105052
1090,-1.092544987,-0.176324503,-0.396966994,-0.482625483,0.002349854,98.50928709
1092,-1.089117395,-0.20281457,-0.396074933,-0.434362934,0.00112915,98.50674474
1094,-1.051413882,-0.233443709,-0.413024086,-0.482625483,0.000640869,98.50850654
1096,-1.013710368,-0.247516556,-0.449598573,-0.434362934,0.002838135,98.50611948
1098,-1.003427592,-0.26986755,-0.473684211,-0.482625483,0.003601074,98.51073434
1100,-0.946015424,-0.281456954,-0.510258698,-0.482625483,0.001525879,98.51071011
1102,-0.904884319,-0.29884106,-0.565566459,-0.530888031,0.001708984,98.50998783
1104,-0.8697515,-0.300496689,-0.601248885,-0.434362934,6.10352E-05,98.51066575
1106,-0.808054841,-0.301324503,-0.660124888,-0.627413127,0.000823975,98.51179614
1108,-0.770351328,-0.308774834,-0.670829616,-0.434362934,0.004577637,98.51486607
1110,-0.791773779,-0.329470199,-0.67528992,-0.530888031,0.00189209,98.5186739
1112,-0.747215081,-0.315397351,-0.67618198,-0.579150579,-0.000762939,98.51527369
1114,-0.706083976,-0.315397351,-0.672613738,-0.482625483,0.00112915,98.51116546
1116,-0.702656384,-0.299668874,-0.67618198,-0.627413127,0.001312256,98.5092968
1118,-0.648671808,-0.26986755,-0.67618198,-0.434362934,0.006164551,98.51037033
1120,-0.619537275,-0.25,-0.67618198,-0.579150579,0.001220703,98.50915771
1122,-0.626392459,-0.246688742,-0.677074041,-0.627413127,0.00100708,98.51341314
1124,-0.590402742,-0.222682119,-0.67618198,-0.482625483,0.00100708,98.50898328
1126,-0.568980291,-0.210264901,-0.677074041,-0.579150579,0.002746582,98.51392344
1128,-0.542416452,-0.195364238,-0.677074041,-0.530888031,0.002532959,98.51559302
1130,-0.511568123,-0.180463576,-0.677966102,-0.579150579,0.001312256,98.51676452
1132,-0.45672665,-0.159768212,-0.678858162,-0.579150579,0.00189209,98.51324337
1134,-0.450728363,-0.147350993,-0.677966102,-0.530888031,0.000457764,98.50853334
1136,-0.414738646,-0.139900662,-0.678858162,-0.530888031,0.001525879,98.50925804
1138,-0.374464439,-0.133278146,-0.678858162,-0.482625483,0.003601074,98.50455785
1140,-0.35646958,-0.129139073,-0.678858162,-0.530888031,0.00177002,98.50667319
1142,-0.317909169,-0.123344371,-0.679750223,-0.530888031,0.003997803,98.50381358
1144,-0.289631534,-0.125,-0.678858162,-0.482625483,0.001403809,98.50136545
1146,-0.283633248,-0.13410596,-0.678858162,-0.530888031,0.001586914,98.50595138
1148,-0.236503856,-0.135761589,-0.678858162,-0.530888031,0,98.50277028
1150,-0.200514139,-0.134933775,-0.678858162,-0.482625483,0.01373291,98.50575485
1152,-0.185946872,-0.148178808,-0.678858162,-0.579150579,-0.018371582,98.50115528
1154,-0.157669237,-0.15397351,-0.678858162,-0.434362934,-0.094604492,98.49924687
1156,-0.119108826,-0.159768212,-0.678858162,-0.530888031,0.156463623,98.50391779
1158,-0.101970865,-0.171357616,-0.678858162,-0.579150579,0.183746338,98.5015877
1160,-0.074550129,-0.173013245,-0.677966102,-0.434362934,-0.09954834,98.49780645
1162,-0.035132819,-0.174668874,-0.678858162,-0.579150579,-0.625305176,98.49888023
1164,-0.023136247,-0.181291391,-0.677966102,-0.434362934,0.094970703,98.50033375
1166,0.005141388,-0.195364238,-0.679750223,-0.627413127,0.749389648,98.504078
1168,0.054841474,-0.199503311,-0.677966102,-0.482625483,0.197479248,98.50805129
1170,0.06083976,-0.20281457,-0.678858162,-0.482625483,-0.331939697,98.50358307
1172,0.078834619,-0.211092715,-0.678858162,-0.579150579,-0.720581055,98.5061782
1174,0.122536418,-0.205298013,-0.677966102,-0.482625483,-0.282348633,98.50976724
1176,0.12596401,-0.212748344,-0.677074041,-0.530888031,0.402832031,98.50958447
1178,0.150814053,-0.210264901,-0.679750223,-0.530888031,0.651733398,98.50533544
1180,0.190231362,-0.208609272,-0.677074041,-0.579150579,0.330596924,98.50124265
1182,0.225364182,-0.178807947,-0.67618198,-0.482625483,0.156097412,98.49824481
1184,0.235646958,-0.144039735,-0.645851918,-0.482625483,-0.383239746,98.50102767
1186,0.293059126,-0.102649007,-0.597680642,-0.579150579,-0.584014893,98.50010047
1188,0.318766067,-0.109271523,-0.563782337,-0.530888031,-0.429901123,98.50337089
1190,0.330762639,-0.113410596,-0.606601249,-0.530888031,-0.239440918,98.49985057
1192,0.383890317,-0.081953642,-0.677074041,-0.482625483,0.26663208,98.50217971
1194,0.410454156,-0.090231788,-0.677074041,-0.579150579,0.598968506,98.49867863
1196,0.45672665,-0.105960265,-0.684210526,-0.482625483,0.597381592,98.50206293
1198,0.506426735,-0.113410596,-0.678858162,-0.579150579,0.302185059,98.5025166
1200,0.527849186,-0.176324503,-0.677074041,-0.530888031,-0.046417236,98.50712828
1202,0.577549272,-0.27897351,-0.683318466,-0.627413127,-0.47442627,98.50288324
1204,0.562125107,-0.274834437,-0.668153434,-0.530888031,-0.57989502,98.50722157
1206,0.502999143,-0.300496689,-0.623550401,-0.579150579,-0.330993652,98.50581581
1208,0.518423308,-0.332781457,-0.601248885,-0.627413127,-0.08493042,98.50148512
1210,0.550985433,-0.329470199,-0.582515611,-0.530888031,0.178985596,98.50614445
1212,0.552699229,-0.330298013,-0.562890277,-0.579150579,0.355407715,98.50763898
1214,0.565552699,-0.337748344,-0.534344335,-0.530888031,0.245849609,98.50684515
1216,0.600685518,-0.337748344,-0.536128457,-0.530888031,0.103637695,98.50780956
1218,0.604113111,-0.33692053,-0.516503122,-0.482625483,-0.037078857,98.50628044
1220,0.59982862,-0.358443709,-0.50044603,-0.482625483,-0.113464355,98.50345671
1222,0.645244216,-0.348509934,-0.494201606,-0.482625483,-0.096679688,98.49883512
1224,0.652956298,-0.363410596,-0.481712756,-0.530888031,-0.031158447,98.49536937
1226,0.654670094,-0.377483444,-0.455842997,-0.579150579,0.022674561,98.4941032
1228,0.686375321,-0.376655629,-0.435325602,-0.482625483,0.030578613,98.49787135
1230,0.686375321,-0.384933775,-0.41926851,-0.530888031,0.003417969,98.49728283
1232,0.70865467,-0.383278146,-0.395182872,-0.530888031,-0.032989502,98.49866053
1234,0.735218509,-0.38410596,-0.380017841,-0.482625483,-0.041748047,98.49753859
1236,0.740359897,-0.393211921,-0.362176628,-0.530888031,-0.024871826,98.50091055
1238,0.738646101,-0.407284768,-0.329170384,-0.482625483,0.003051758,98.50357373
1240,0.774635818,-0.404801325,-0.327386262,-0.530888031,0.019439697,98.49982957
1242,0.777206512,-0.413907285,-0.304192685,-0.482625483,0.021362305,98.49575618
1244,0.778920308,-0.424668874,-0.284567351,-0.482625483,0.013977051,98.49735936
1246,0.807197943,-0.417218543,-0.27029438,-0.530888031,0.007507324,98.49613607
1248,0.820908312,-0.419701987,-0.249776985,-0.482625483,0.008575439,98.49221399
1250,0.824335904,-0.419701987,-0.217662801,-0.530888031,0.012390137,98.4934521
1252,0.844901457,-0.426324503,-0.194469224,-0.530888031,0.010925293,98.49466811
1254,0.857754927,-0.423013245,-0.197145406,-0.434362934,0.005218506,98.49878438
1256,0.860325621,-0.435430464,-0.171275647,-0.434362934,-0.00112915,98.4998457
1258,0.889460154,-0.426324503,-0.163247101,-0.482625483,-0.0050354,98.49969915
1260,0.892887746,-0.430463576,-0.153434434,-0.434362934,-0.003295898,98.50046656
1262,0.885175664,-0.435430464,-0.133809099,-0.530888031,-0.002075195,98.50528758
1264,0.904027421,-0.432119205,-0.126672614,-0.530888031,-0.001403809,98.50547326
1266,0.911739503,-0.432119205,-0.115967886,-0.530888031,-0.001312256,98.50396028
1268,0.897172237,-0.444536424,-0.101694915,-0.530888031,-0.00177002,98.50878902
1270,0.925449871,-0.442880795,-0.084745763,-0.530888031,0.000457764,98.51370912
1272,0.910882605,-0.450331126,-0.065120428,-0.482625483,0.00189209,98.5176707
1274,0.899742931,-0.453642384,-0.048171276,-0.627413127,0.003112793,98.5200865
1276,0.925449871,-0.456125828,-0.034790366,-0.482625483,0.003417969,98.52173387
1278,0.921165381,-0.461092715,-0.028545941,-0.530888031,0.00177002,98.52406749
1280,0.916880891,-0.469370861,-0.008028546,-0.530888031,0.002929688,98.52342666
1282,0.940017138,-0.485927152,0.009812667,-0.530888031,0.003875732,98.52242298
1284,0.946015424,-0.474337748,0.010704728,-0.530888031,0.004058838,98.51960189
1286,0.928020566,-0.463576159,0.02765388,-0.482625483,0.003417969,98.52341819
1288,0.854327335,-0.259933775,0.377341659,-0.627413127,0.002746582,98.52783889
1290,0.811482434,-0.130794702,1.029438002,-0.530888031,-0.001586914,98.53232844
1292,1.1302485,0.532284768,0.073148974,-0.482625483,0.00100708,98.52839286
1294,1.629820051,1.205298013,-0.695807315,-0.579150579,0.00189209,98.52397262
1296,1.680377035,-0.237582781,-0.68956289,-0.482625483,0.003875732,98.52060986
1298,1.546700943,-1.069536424,-0.723461195,-0.627413127,0.002349854,98.5208846
1300,1.286203942,-1.07615894,-0.697591436,-0.530888031,0.000457764,98.51658208
1302,1.103684662,-1.051324503,-0.303300624,-0.482625483,-0.000457764,98.51168353
1304,0.970865467,-1.020695364,-0.072256913,-0.627413127,0.00189209,98.50760033
1306,0.907455013,-0.849337748,0.052631579,-0.434362934,0.000946045,98.50867468
1308,0.856041131,-0.821192053,0.111507583,-0.482625483,0.002532959,98.50423554
1310,0.827763496,-0.809602649,0.152542373,-0.627413127,0.001220703,98.50581654
1312,0.832904884,-0.810430464,0.165923283,-0.530888031,0.002471924,98.50657474
1314,0.839760069,-0.814569536,0.173059768,-0.530888031,0.002532959,98.5023131
1316,0.819194516,-0.820364238,0.181088314,-0.482625483,0.002288818,98.49972879
1318,0.838903171,-0.831953642,0.18911686,-0.482625483,0.003234863,98.49824074
1320,0.851756641,-0.821192053,0.180196253,-0.434362934,0.003234863,98.49450813
1322,0.841473865,-0.819536424,0.191793042,-0.530888031,0.003051758,98.49690221
1324,0.861182519,-0.81705298,0.188224799,-0.434362934,0.00189209,98.49635901
1326,0.880891174,-0.802152318,0.181088314,-0.482625483,0.000549316,98.49153513
1328,0.868037704,-0.77897351,0.22925959,-0.434362934,0.001220703,98.49335221
1330,0.907455013,-0.721854305,0.318465656,-0.482625483,-0.000244141,98.49716054
1332,0.929734362,-0.683774834,0.371097235,-0.434362934,0.003875732,98.49355875
1334,0.923736075,-0.694536424,0.402319358,-0.482625483,0.004272461,98.49666729
1336,0.941730934,-0.676324503,0.354148082,-0.530888031,0.002655029,98.49419588
1338,0.976006855,-0.648178808,0.20249777,-0.482625483,0.00112915,98.48943974
1340,0.967437875,-0.637417219,0.186440678,-0.482625483,0.003875732,98.48974698
1342,1.002570694,-0.626655629,0.198929527,-0.434362934,0.003997803,98.49409552
1344,1.027420737,-0.647350993,0.228367529,-0.627413127,0.002929688,98.49678881
1346,1.020565553,-0.713576159,0.246208742,-0.482625483,0.00177002,98.49583633
1348,1.055698372,-0.814569536,0.247100803,-0.579150579,0.001312256,98.49801444
1350,1.010282776,-0.825331126,0.349687779,-0.434362934,0.001586914,98.49782767
1352,0.928020566,-0.899834437,0.423728814,-0.627413127,0.001708984,98.49723943
1354,0.936589546,-0.93294702,0.466547725,-0.627413127,0.003875732,98.50166303
1356,0.940017138,-0.955298013,0.506690455,-0.434362934,0.005218506,98.50245082
1358,0.914310197,-0.991721854,0.543264942,-0.579150579,0.002532959,98.50528691
1360,0.937446444,-1.011589404,0.536128457,-0.530888031,-0.002349854,98.50743499
1362,0.953727506,-1.030629139,0.531668153,-0.579150579,-0.00112915,98.50385665
1364,0.952870608,-1.037251656,0.52720785,-0.627413127,0.000457764,98.50578583
1366,0.972579263,-1.041390728,0.521855486,-0.579150579,0.003295898,98.50472232
1368,0.99571551,-1.03807947,0.493309545,-0.530888031,0.004364014,98.501
1370,0.988860326,-1.018211921,0.483496878,-0.627413127,0.002471924,98.50240904
1372,0.994001714,-0.991721854,0.478144514,-0.530888031,0.003814697,98.50238413
1374,1.028277635,-0.964403974,0.442462087,-0.434362934,0.002349854,98.49802385
1376,1,-0.947019868,0.437109723,-0.530888031,0.000549316,98.49825923
1378,0.996572408,-0.911423841,0.441570027,-0.530888031,0.002166748,98.49640462
1380,1.005141388,-0.876655629,0.422836753,-0.579150579,0.003112793,98.49995354
1382,0.989717224,-0.841059603,0.434433541,-0.530888031,0.013031006,98.4950437
1384,0.983718937,-0.813741722,0.425512935,-0.530888031,-0.025939941,98.49206955
1386,0.98714653,-0.771523179,0.422836753,-0.579150579,-0.017028809,98.49587559
1388,0.953727506,-0.753311258,0.437109723,-0.530888031,0.094390869,98.49305609
1390,0.948586118,-0.724337748,0.448706512,-0.579150579,0.080871582,98.49123299
1392,0.941730934,-0.700331126,0.450490633,-0.579150579,-0.147033691,98.48967262
1394,0.913453299,-0.687913907,0.458519179,-0.579150579,-0.329956055,98.4926734
1396,0.906598115,-0.670529801,0.457627119,-0.627413127,0.282531738,98.49338424
1398,0.928877464,-0.650662252,0.44603033,-0.530888031,0.414825439,98.49651663
1400,0.910025707,-0.647350993,0.458519179,-0.675675676,-0.153045654,98.49237842
1402,0.918594687,-0.63410596,0.460303301,-0.530888031,-0.388580322,98.4892998
1404,0.929734362,-0.636589404,0.450490633,-0.482625483,-0.19052124,98.49059481
1406,0.901456727,-0.639072848,0.457627119,-0.482625483,0.148193359,98.48623345
1408,0.897172237,-0.639072848,0.458519179,-0.530888031,0.41809082,98.48866307
1410,0.917737789,-0.631622517,0.445138269,-0.530888031,0.319671631,98.48969705
1412,0.892030848,-0.636589404,0.449598573,-0.386100386,-0.025939941,98.49268149
1414,0.892887746,-0.638245033,0.462087422,-0.482625483,-0.390411377,98.48928744
1416,0.908311911,-0.631622517,0.445138269,-0.627413127,-0.449829102,98.49166674
1418,0.872322194,-0.640728477,0.450490633,-0.337837838,-0.223907471,98.49423714
1420,0.880891174,-0.639900662,0.44603033,-0.241312741,0.111083984,98.49805025
1422,0.903170523,-0.624172185,0.435325602,-0.337837838,0.381256104,98.49734267
1424,0.880034276,-0.63410596,0.429973238,-0.579150579,0.436645508,98.4942175
1426,0.862896315,-0.634933775,0.443354148,-0.482625483,0.271789551,98.49224781
1428,0.880034276,-0.625,0.438001784,-0.193050193,-0.016265869,98.49045538
1430,0.856041131,-0.625827815,0.426404996,-0.530888031,-0.276062012,98.48987545
1432,0.854327335,-0.620860927,0.424620874,-0.482625483,-0.378967285,98.4884943
1434,0.871465296,-0.617549669,0.425512935,-0.482625483,-0.271484375,98.4897503
1436,0.838903171,-0.615066225,0.429081178,-0.482625483,-0.053466797,98.49413857
1438,0.823479006,-0.613410596,0.43175736,-0.482625483,0.142547607,98.49200761
1440,0.853470437,-0.595198675,0.41926851,-0.530888031,0.219207764,98.4894536
1442,0.824335904,-0.597682119,0.416592328,-0.530888031,0.166015625,98.49366214
1444,0.811482434,-0.59602649,0.416592328,-0.627413127,0.063018799,98.49792431
1446,0.83033419,-0.586092715,0.40499554,-0.627413127,-0.020843506,98.49602372
1448,0.803770351,-0.588576159,0.4058876,-0.482625483,-0.047851563,98.49178847
1450,0.793487575,-0.576986755,0.4058876,-0.627413127,-0.031280518,98.49459725
1452,0.808054841,-0.570364238,0.375557538,-0.627413127,-0.0078125,98.4909047
1454,0.783204799,-0.567880795,0.358608385,-0.627413127,-0.006561279,98.49051952
1456,0.767780634,-0.567880795,0.353256021,-0.530888031,-0.017242432,98.48992121
1458,0.776349614,-0.560430464,0.348795718,-0.482625483,-0.027648926,98.49097123
1460,0.763496144,-0.557119205,0.33719893,-0.579150579,-0.022125244,98.48724144
1462,0.749785775,-0.555463576,0.344335415,-0.627413127,-0.002349854,98.48823188
1464,0.766923736,-0.540562914,0.332738626,-0.530888031,0.010559082,98.48455313
1466,0.749785775,-0.548013245,0.322033898,-0.627413127,0.016784668,98.4807065
1468,0.738646101,-0.541390728,0.334522748,-0.530888031,0.013519287,98.48011723
1470,0.763496144,-0.529801325,0.32471008,-0.675675676,0.007324219,98.47782823
1472,0.745501285,-0.525662252,0.328278323,-0.579150579,0.003997803,98.4822693
1474,0.740359897,-0.489238411,0.349687779,-0.579150579,0.00769043,98.48243573
1476,0.746358183,-0.438741722,0.43264942,-0.579150579,0.010375977,98.48188865
1478,0.738646101,-0.397350993,0.475468332,-0.530888031,0.005126953,98.47997453
1480,0.734361611,-0.399834437,0.49955397,-0.627413127,-0.002075195,98.4796705
1482,0.720651243,-0.383278146,0.445138269,-0.627413127,-0.001983643,98.48246494
1484,0.716366752,-0.341887417,0.313113292,-0.530888031,-0.002838135,98.47915306
1486,0.716366752,-0.354304636,0.27029438,-0.579150579,0.000183105,98.47437757
1488,0.748071979,-0.357615894,0.25691347,-0.579150579,0.000244141,98.47646487
1490,0.734361611,-0.368377483,0.251561106,-0.530888031,-0.001525879,98.47751636
1492,0.721508141,-0.408112583,0.2426405,-0.482625483,-0.002075195,98.47665316
1494,0.77377892,-0.503311258,0.176628011,-0.530888031,-0.001220703,98.48080087
1496,0.707797772,-0.496688742,0.250669045,-0.530888031,0.000640869,98.48057267
1498,0.635818338,-0.51986755,0.294380018,-0.434362934,0.007415771,98.48473489
1500,0.63496144,-0.530629139,0.275646744,-0.530888031,0.007049561,98.48470396
1502,0.615252785,-0.534768212,0.279214987,-0.482625483,0.003295898,98.48897949
1504,0.603256213,-0.529801325,0.292595897,-0.434362934,0.001525879,98.491016
1506,0.610968295,-0.524006623,0.293487957,-0.434362934,0.004272461,98.49296242
1508,0.597257926,-0.520695364,0.291703836,-0.386100386,0.003417969,98.48800836
1510,0.57412168,-0.514900662,0.303300624,-0.337837838,0.003997803,98.48841055
1512,0.589545844,-0.510761589,0.29794826,-0.386100386,0.001312256,98.48754026
1514,0.572407883,-0.50910596,0.291703836,-0.28957529,-0.000457764,98.48882156
1516,0.551842331,-0.504139073,0.304192685,-0.579150579,0.00189209,98.48925691
1518,0.570694087,-0.49089404,0.306868867,-0.434362934,0.002929688,98.48641689
1520,0.559554413,-0.484271523,0.302408564,-0.386100386,0.003875732,98.48693794
1522,0.54327335,-0.481788079,0.314005352,-0.482625483,0.004058838,98.49056543
1524,0.550985433,-0.473509934,0.314897413,-0.482625483,0.000640869,98.48561482
1526,0.544987147,-0.466059603,0.316681534,-0.482625483,0.000640869,98.48186566
1528,0.52613539,-0.464403974,0.32381802,-0.530888031,0.001220703,98.48461637
1530,0.542416452,-0.454470199,0.322033898,-0.579150579,0.002075195,98.47982024
1532,0.53041988,-0.454470199,0.321141838,-0.579150579,6.10352E-05,98.47624656
1534,0.513281919,-0.454470199,0.327386262,-0.530888031,0.004455566,98.47445067
1536,0.522707798,-0.449503311,0.332738626,-0.627413127,0.003692627,98.47849817
1538,0.510711225,-0.443708609,0.335414808,-0.579150579,-0.000457764,98.47963973
1540,0.490145673,-0.443708609,0.335414808,-0.579150579,-0.000183105,98.47479871
1542,0.504712939,-0.436258278,0.341659233,-0.627413127,0.000244141,98.47291265
1544,0.493573265,-0.432119205,0.33719893,-0.579150579,0.002929688,98.46984037
1546,0.471293916,-0.419701987,0.330062444,-0.627413127,0.005218506,98.46759505
1548,0.491002571,-0.405629139,0.318465656,-0.530888031,0.000823975,98.46286215
1550,0.433590403,-0.258278146,0.445138269,-0.627413127,0.000946045,98.46616855
1552,0.29562982,-0.062913907,1.272970562,-0.723938224,0.005340576,98.46881134
1554,0.525278492,0.316225166,0.758251561,-0.627413127,0.003814697,98.47102291
1556,1.031705227,1.308774834,-0.630686887,-0.579150579,0.000366211,98.47425008
1558,1.544987147,0.42384106,-0.709188225,-0.675675676,-0.000183105,98.47689552
1560,1.222793488,-0.842715232,-0.70205174,-0.627413127,-0.002166748,98.47310119
1562,0.917737789,-1.068708609,-0.7029438,-0.579150579,0.000823975,98.47194451
1564,0.649528706,-1.016556291,-0.268510259,-0.627413127,0.004058838,98.46722374
1566,0.526992288,-0.889900662,0.0544157,-0.579150579,0.003417969,98.46223678
1568,0.425021422,-0.717715232,0.194469224,-0.675675676,0.005523682,98.45730676
1570,0.353898886,-0.627483444,0.27029438,-0.627413127,0.006469727,98.45398461
1572,0.335904027,-0.620860927,0.307760928,-0.579150579,0.004272461,98.45048896
1574,0.321336761,-0.609271523,0.31043711,-0.579150579,-0.000640869,98.4506439
1576,0.287917738,-0.605960265,0.322925959,-0.579150579,-0.000823975,98.44983273
1578,0.294772922,-0.608443709,0.327386262,-0.579150579,0.000762939,98.45077085
1580,0.288774636,-0.605960265,0.314005352,-0.530888031,0.004455566,98.44854066
1582,0.263067695,-0.60513245,0.312221231,-0.579150579,0.005218506,98.44946893
1584,0.269922879,-0.603476821,0.319357716,-0.482625483,0.002075195,98.45032034
1586,0.260497001,-0.599337748,0.309545049,-0.482625483,0.000366211,98.44653624
1588,0.233076264,-0.599337748,0.316681534,-0.434362934,-0.000946045,98.44232218
1590,0.249357326,-0.590231788,0.314005352,-0.434362934,-6.10352E-05,98.43764284
1592,0.252784919,-0.579470199,0.305976806,-0.434362934,0.001312256,98.43432452
1594,0.233076264,-0.567880795,0.320249777,-0.482625483,0.000823975,98.43456623
1596,0.24764353,-0.554635762,0.325602141,-0.434362934,0.003509521,98.43797992
1598,0.24764353,-0.554635762,0.32381802,-0.337837838,0.002838135,98.43604404
1600,0.232219366,-0.548013245,0.33809099,-0.434362934,0.002746582,98.43295565
1602,0.241645244,-0.534768212,0.358608385,-0.434362934,0.000946045,98.42860684
1604,0.257069409,-0.528145695,0.362176628,-0.337837838,0.000823975,98.43306694
1606,0.237360754,-0.530629139,0.380017841,-0.530888031,0.001312256,98.4305146
1608,0.241645244,-0.526490066,0.408563782,-0.434362934,0.002075195,98.43176864
1610,0.233933162,-0.539735099,0.429081178,-0.434362934,0.000640869,98.42883538
1612,0.203084833,-0.557119205,0.474576271,-0.386100386,-0.000549316,98.42625281
1614,0.209940017,-0.569536424,0.504906334,-0.482625483,0.002075195,98.42868694
1616,0.214224507,-0.58692053,0.534344335,-0.434362934,0.004577637,98.42524697
1618,0.201371037,-0.612582781,0.573595004,-0.482625483,0.005584717,98.4284787
1620,0.207369323,-0.618377483,0.611953613,-0.434362934,0.000946045,98.42441855
1622,0.22193659,-0.592715232,0.690454951,-0.482625483,-0.000244141,98.42921653
1624,0.198800343,-0.572847682,0.793933988,-0.530888031,0.000762939,98.43074874
1626,0.246786632,-0.545529801,0.807314897,-0.530888031,0.000946045,98.42858988
1628,0.257926307,-0.543874172,0.800178412,-0.579150579,0.004821777,98.43226221
1630,0.242502142,-0.552152318,0.629794826,-0.579150579,0.001708984,98.42756361
1632,0.280205656,-0.509933775,0.525423729,-0.627413127,0.00112915,98.43017299
1634,0.316195373,-0.477649007,0.465655665,-0.579150579,0.000183105,98.43413476
1636,0.324764353,-0.443708609,0.454950937,-0.627413127,0.002655029,98.43532351
1638,0.333333333,-0.444536424,0.447814451,-0.627413127,0.00112915,98.43753096
1640,0.36503856,-0.487582781,0.387154326,-0.627413127,0.003692627,98.43716946
1642,0.350471294,-0.517384106,0.381801963,-0.627413127,0.004180908,98.43975833
1644,0.258783205,-0.503311258,0.440677966,-0.675675676,0.00100708,98.43482974
1646,0.238217652,-0.495860927,0.428189117,-0.579150579,0.001312256,98.4317646
1648,0.205655527,-0.49089404,0.43175736,-0.530888031,0.001525879,98.42767912
1650,0.189374464,-0.46192053,0.438001784,-0.627413127,0.001220703,98.42435845
1652,0.195372751,-0.430463576,0.430865299,-0.530888031,0.005340576,98.42878093
1654,0.172236504,-0.409768212,0.438001784,-0.627413127,0.001312256,98.43227525
1656,0.159383033,-0.38410596,0.452274755,-0.482625483,0.001312256,98.42864808
1658,0.164524422,-0.361754967,0.44603033,-0.627413127,-0.000762939,98.43025534
1660,0.143958869,-0.351821192,0.462979483,-0.579150579,0.003051758,98.42564023
1662,0.127677806,-0.346854305,0.476360393,-0.579150579,0.002929688,98.42212186
1664,0.125107112,-0.321192053,0.464763604,-0.579150579,0.001220703,98.4189695
1666,0.10454156,-0.31705298,0.47279215,-0.579150579,-0.000549316,98.42042312
1668,0.093401885,-0.310430464,0.471008029,-0.675675676,0.00189209,98.42398866
1670,0.101970865,-0.302152318,0.471008029,-0.579150579,0.001708984,98.42752241
1672,0.079691517,-0.293046358,0.481712756,-0.530888031,0.003509521,98.42746279
1674,0.081405313,-0.286423841,0.493309545,-0.627413127,0.003997803,98.43027157
1676,0.090831191,-0.270695364,0.488849242,-0.434362934,0.003692627,98.42801811
1678,0.077977721,-0.271523179,0.479928635,-0.530888031,0.001312256,98.4326919
1680,0.070265638,-0.270695364,0.487957181,-0.434362934,0.001708984,98.4375972
1682,0.087403599,-0.252483444,0.480820696,-0.386100386,-0.001220703,98.43344169
1684,0.063410454,-0.254966887,0.488849242,-0.386100386,0.001586914,98.43173962
1686,0.063410454,-0.249172185,0.495093666,-0.193050193,0.002929688,98.42942261
1688,0.06940874,-0.254966887,0.483496878,-0.386100386,0.003692627,98.42658184
1690,0.057412168,-0.252483444,0.487957181,-0.337837838,0.00177002,98.42925206
1692,0.05227078,-0.24089404,0.492417484,-0.386100386,0.001312256,98.4279026
1694,0.054841474,-0.237582781,0.492417484,-0.337837838,0.002655029,98.42444277
1696,0.04798629,-0.24089404,0.494201606,-0.434362934,0.001220703,98.42109299
1698,0.039417309,-0.235099338,0.504014273,-0.386100386,0.002929688,98.42502663
1700,0.058269066,-0.227649007,0.495093666,-0.434362934,0.000946045,98.42948453
1702,0.039417309,-0.228476821,0.497769848,-0.482625483,0.000946045,98.4296592
1704,0.026563839,-0.22102649,0.508474576,-0.482625483,0.000549316,98.42484294
1706,0.042844901,-0.211092715,0.502230152,-0.482625483,0.002929688,98.424036
1708,0.028277635,-0.210264901,0.501338091,-0.530888031,0.005340576,98.42025685
1710,0.020565553,-0.201986755,0.514719001,-0.579150579,0.003997803,98.42477533
1712,0.035132819,-0.193708609,0.512042819,-0.482625483,0.002288818,98.42247713
1714,0.023993145,-0.196192053,0.523639607,-0.627413127,0.002288818,98.42641366
1716,-0.003427592,-0.194536424,0.538804639,-0.579150579,0.000640869,98.43036558
1718,0.024850043,-0.187913907,0.537912578,-0.627413127,0.000823975,98.4331209
1720,0.016281063,-0.183774834,0.536128457,-0.579150579,0.012573242,98.43720911
1722,0.011996572,-0.181291391,0.552185549,-0.579150579,-0.016967773,98.43237591
1724,0.017994859,-0.177152318,0.552185549,-0.627413127,-0.096008301,98.4369688
1726,0.013710368,-0.176324503,0.553077609,-0.579150579,0.155334473,98.43272133
1728,0,-0.17384106,0.565566459,-0.579150579,0.18270874,98.43057266
1730,0.010282776,-0.165562914,0.561998216,-0.482625483,-0.097839355,98.43045383
1732,0.003427592,-0.16307947,0.561998216,-0.579150579,-0.624542236,98.43515955
1734,-0.010282776,-0.162251656,0.58162355,-0.579150579,0.091430664,98.43584068
1736,0.007712082,-0.150662252,0.572702944,-0.579150579,0.744995117,98.43358039
1738,0.000856898,-0.152317881,0.571810883,-0.579150579,0.199005127,98.42987122
1740,-0.020565553,-0.157284768,0.582515611,-0.723938224,-0.332336426,98.42642314
1742,-0.000856898,-0.150662252,0.586083854,-0.579150579,-0.720275879,98.42411126
1744,-0.011996572,-0.150662252,0.587867975,-0.723938224,-0.2784729,98.42345015
1746,-0.033419023,-0.140728477,0.600356824,-0.627413127,0.402709961,98.42240919
1748,-0.017994859,-0.134933775,0.598572703,-0.627413127,0.64855957,98.42166165
1750,-0.022279349,-0.125,0.603925067,-0.579150579,0.327178955,98.42280555
1752,-0.046272494,-0.139072848,0.60838537,-0.627413127,0.155059814,98.4222736
1754,-0.031705227,-0.132450331,0.610169492,-0.627413127,-0.381835938,98.41739383
1756,-0.034275921,-0.122516556,0.611953613,-0.579150579,-0.579437256,98.41273654
1758,-0.050556984,-0.124172185,0.628010705,-0.627413127,-0.388214111,98.41172425
1760,-0.025706941,-0.110099338,0.622658341,-0.530888031,-0.313812256,98.41651875
1762,-0.035989717,-0.113410596,0.622658341,-0.482625483,0.339111328,98.41694644
1764,-0.045415596,-0.103476821,0.632471008,-0.579150579,0.516113281,98.42107031
1766,-0.023993145,-0.056291391,0.67618198,-0.434362934,0.643981934,98.4193119
1768,-0.023993145,-0.010761589,0.762711864,-0.530888031,0.206359863,98.41721706
1770,-0.023136247,0.023178808,0.811775201,-0.434362934,-0.016265869,98.4210068
1772,-0.016281063,0.021523179,0.822479929,-0.337837838,-0.623382568,98.42379824
1774,-0.033419023,0.01986755,0.695807315,-0.530888031,-0.442687988,98.42274236
1776,-0.026563839,0.066225166,0.628010705,-0.386100386,-0.484924316,98.42656562
1778,0.00856898,0.069536424,0.600356824,-0.434362934,-0.011810303,98.42582231
1780,0.030848329,0.063741722,0.5941124,-0.530888031,0.178588867,98.42548609
1782,0.027420737,0.038907285,0.599464764,-0.482625483,0.314331055,98.4247354
1784,0.061696658,-0.02897351,0.550401427,-0.434362934,0.302185059,98.4242875
1786,0.086546701,-0.104304636,0.529884032,-0.434362934,0.076660156,98.42624175
1788,-0.029134533,-0.110099338,0.632471008,-0.482625483,-0.039916992,98.42219753
1790,-0.048843188,-0.109271523,0.650312221,-0.579150579,-0.099182129,98.42453213
1792,-0.05227078,-0.133278146,0.647636039,-0.434362934,-0.092102051,98.42083231
1794,-0.070265638,-0.135761589,0.667261374,-0.530888031,-0.033935547,98.42079759
1796,-0.059125964,-0.128311258,0.674397859,-0.482625483,0.020080566,98.41839418
1798,-0.05227078,-0.117549669,0.679750223,-0.434362934,0.029754639,98.41931084
1800,-0.082262211,-0.120033113,0.68956289,-0.482625483,-0.000183105,98.41658703
1802,-0.057412168,-0.116721854,0.696699376,-0.434362934,-0.029174805,98.4211382
1804,-0.053984576,-0.110099338,0.685102587,-0.530888031,-0.040985107,98.4167683
1806,-0.06940874,-0.102649007,0.695807315,-0.434362934,-0.020385742,98.41360077
1808,-0.061696658,-0.110099338,0.706512043,-0.482625483,0.000457764,98.41484319
1810,-0.05227078,-0.088576159,0.697591436,-0.579150579,0.01953125,98.41275725
1812,-0.06940874,-0.045529801,0.704727921,-0.579150579,0.020294189,98.40912912
1814,-0.162810626,0.150662252,1.140945584,-0.627413127,0.014190674,98.40601846
1816,-0.172236504,0.293874172,1.767172168,-0.579150579,0.006103516,98.41058463
1818,0.154241645,1.018211921,0.644959857,-0.675675676,0.00769043,98.40855076
1820,0.793487575,1.625827815,-0.671721677,-0.579150579,0.010375977,98.40592279
1822,1.107969152,0.180463576,-0.67528992,-0.434362934,0.010284424,98.40752436
1824,0.571550985,-0.734271523,-0.680642284,-0.579150579,0.005706787,98.40256732
1826,0.311053985,-0.748344371,-0.172167707,-0.530888031,-0.002655029,98.39834901
1828,0.123393316,-0.643211921,0.305084746,-0.579150579,-0.004821777,98.39644485
1830,-0.005998286,-0.528145695,0.537020517,-0.675675676,-0.004638672,98.39368456
1832,-0.084832905,-0.36589404,0.661016949,-0.627413127,-0.0050354,98.39563745
1834,-0.123393316,-0.307119205,0.722569135,-0.723938224,-0.002532959,98.39763977
1836,-0.152527849,-0.290562914,0.743978591,-0.627413127,-0.000549316,98.40115792
1838,-0.149100257,-0.292218543,0.759143622,-0.627413127,0.00112915,98.40174852
1840,-0.143101971,-0.283112583,0.759143622,-0.772200772,0.001403809,98.40245184
1842,-0.162810626,-0.287251656,0.774308653,-0.579150579,0.001983643,98.40276105
1844,-0.159383033,-0.281456954,0.780553078,-0.627413127,0.000366211,98.40634991
1846,-0.144815767,-0.278145695,0.764495986,-0.530888031,0.003601074,98.40581337
1848,-0.170522708,-0.268211921,0.774308653,-0.482625483,0.001983643,98.40464718
1850,-0.143101971,-0.269039735,0.766280107,-0.482625483,0.002655029,98.40560077
1852,-0.141388175,-0.25,0.771632471,-0.482625483,0.000946045,98.40365117
1854,-0.154241645,-0.247516556,0.767172168,-0.530888031,0.003814697,98.39966225
1856,-0.142245073,-0.239238411,0.780553078,-0.482625483,0.003814697,98.39838164
1858,-0.124250214,-0.223509934,0.777876896,-0.386100386,0.003509521,98.39560319
1860,-0.138817481,-0.223509934,0.791257806,-0.530888031,0.000183105,98.39703546
1862,-0.12596401,-0.21192053,0.806422837,-0.434362934,0.000549316,98.39980202
1864,-0.107112254,-0.197847682,0.811775201,-0.386100386,0.003417969,98.39910236
1866,-0.125107112,-0.191225166,0.830508475,-0.530888031,0.003814697,98.40031298
1868,-0.11739503,-0.189569536,0.853702052,-0.482625483,0.002166748,98.39810372
1870,-0.094258783,-0.180463576,0.866190901,-0.434362934,0.000244141,98.3978842
1872,-0.115681234,-0.19205298,0.892952721,-0.482625483,-0.000640869,98.39603162
1874,-0.103684662,-0.190397351,0.928635147,-0.530888031,0.001983643,98.39930332
1876,-0.095115681,-0.209437086,0.961641392,-0.530888031,0.003509521,98.40173493
1878,-0.114824336,-0.226821192,1.010704728,-0.482625483,0.002929688,98.39817804
1880,-0.110539846,-0.258278146,1.036574487,-0.579150579,0.001403809,98.39386069
1882,-0.088260497,-0.278145695,1.06779661,-0.482625483,0.001525879,98.39418206
1884,-0.110539846,-0.300496689,1.102586976,-0.579150579,0.002075195,98.39662161
1886,-0.096829477,-0.325331126,1.117752007,-0.434362934,0.000823975,98.39997895
1888,-0.067694944,-0.334437086,1.118644068,-0.482625483,0.004058838,98.40218558
1890,-0.076263925,-0.345198675,1.120428189,-0.482625483,0.0050354,98.4060618
1892,-0.053984576,-0.341887417,1.119536128,-0.482625483,0.002838135,98.40269034
1894,-0.015424165,-0.32781457,1.085637823,-0.482625483,0.002655029,98.39970273
1896,-0.021422451,-0.318708609,1.060660125,-0.530888031,-0.00100708,98.40352235
1898,-0.007712082,-0.295529801,1.041926851,-0.530888031,0.00177002,98.40314194
1900,0.030848329,-0.251655629,1.001784121,-0.434362934,0.003051758,98.40001244
1902,0.016281063,-0.239238411,0.992863515,-0.482625483,0.00189209,98.40226126
1904,0.020565553,-0.21192053,0.97323818,-0.627413127,0.000457764,98.40609679
1906,0.046272494,-0.169701987,0.944692239,-0.530888031,6.10352E-05,98.4090769
1908,0.039417309,-0.137417219,0.933987511,-0.579150579,-0.000183105,98.41250662
1910,0.032562125,-0.109271523,0.938447814,-0.530888031,0.003051758,98.41288708
1912,0.049700086,-0.074503311,0.922390723,-0.675675676,0.005126953,98.40998297
1914,0.041131105,-0.019039735,0.95985727,-0.579150579,0.003814697,98.41028743
1916,0.029134533,0.050496689,1.061552186,-0.579150579,0,98.41372045
1918,0.079691517,0.124172185,1.099018733,-0.482625483,-0.00112915,98.41087386
1920,0.059982862,0.128311258,1.124888492,-0.579150579,-0.000640869,98.41304112
1922,0.037703513,0.139900662,1.021409456,-0.482625483,0.001983643,98.4166678
1924,0.059982862,0.195364238,0.900089206,-0.579150579,0.003875732,98.41638044
1926,0.055698372,0.217715232,0.871543265,-0.530888031,0.004760742,98.41598548
1928,0.071122536,0.218543046,0.875111508,-0.530888031,6.10352E-05,98.42041076
1930,0.105398458,0.226821192,0.875111508,-0.579150579,0.00100708,98.42169419
1932,0.101970865,0.188741722,0.866190901,-0.675675676,-0.000823975,98.42475806
1934,0.122536418,0.094370861,0.834968778,-0.627413127,-0.000244141,98.42377346
1936,0.091688089,0.104304636,0.90544157,-0.482625483,0.003814697,98.4219874
1938,0.010282776,0.07781457,0.949152542,-0.530888031,0.003875732,98.42077546
1940,0.001713796,0.062086093,0.964317574,-0.675675676,0.004577637,98.42296516
1942,0.020565553,0.062086093,0.967885816,-0.530888031,0.000183105,98.4198958
1944,-0.013710368,0.060430464,0.976806423,-0.482625483,0.000457764,98.41979567
1946,-0.018851757,0.057119205,0.989295272,-0.482625483,0.000457764,98.41600337
1948,-0.001713796,0.061258278,0.991079393,-0.482625483,0.003814697,98.41240257
1950,-0.014567266,0.066225166,0.993755575,-0.482625483,0.002349854,98.41687453
1952,-0.022279349,0.059602649,0.998215879,-0.627413127,0.011047363,98.41818396
1954,-0.006855184,0.067880795,0.991079393,-0.482625483,-0.020019531,98.41757052
1956,-0.018851757,0.061258278,0.996431757,-0.386100386,-0.028686523,98.41964813
1958,-0.026563839,0.068708609,1.005352364,-0.482625483,0.090667725,98.4199446
1960,-0.005998286,0.075331126,1.005352364,-0.482625483,0.091796875,98.42146887
1962,-0.019708655,0.071192053,1.004460303,-0.386100386,-0.115081787,98.42425071
1964,-0.027420737,0.075331126,1.024085638,-0.434362934,-0.339874268,98.42543089
1966,0.000856898,0.08692053,1.017841213,-0.386100386,0.223724365,98.42545176
1968,-0.022279349,0.078642384,1.024085638,-0.482625483,0.436950684,98.42530549
1970,-0.027420737,0.075331126,1.038358608,-0.675675676,-0.086456299,98.42140698
1972,-0.003427592,0.082781457,1.031222123,-0.579150579,-0.39175415,98.42557248
1974,-0.011996572,0.076986755,1.036574487,-0.482625483,-0.219726563,98.42489867
1976,-0.015424165,0.089403974,1.04103479,-0.579150579,0.102294922,98.42416865
1978,0.000856898,0.099337748,1.039250669,-0.530888031,0.404998779,98.41946151
1980,-0.015424165,0.094370861,1.04103479,-0.675675676,0.34463501,98.41956577
1982,-0.032562125,0.081953642,1.049063336,-0.772200772,0.019317627,98.4242028
1984,-0.01285347,0.095198675,1.046387154,-0.723938224,-0.363037109,98.42195631
1986,-0.017994859,0.091887417,1.045495094,-1.206563707,-0.459533691,98.42439042
1988,-0.023136247,0.095198675,1.056199822,-1.061776062,-0.256988525,98.42055845
1990,0.014567266,0.115066225,1.061552186,-0.965250965,0.067596436,98.42325175
1992,0.005998286,0.104304636,1.058876004,-0.579150579,0.36239624,98.42590895
1994,-0.034275921,0.090231788,1.060660125,-0.723938224,0.44152832,98.42631661
1996,-0.021422451,0.091887417,1.047279215,-0.627413127,0.297790527,98.42300979
1998,-0.029991431,0.094370861,1.04014273,-0.579150579,0.017730713,98.427311
2000,-0.045415596,0.081953642,1.055307761,-0.337837838,-0.25213623,98.42439308
2002,-0.029991431,0.094370861,1.0544157,-0.386100386,-0.374969482,98.41959069
2004,-0.027420737,0.097682119,1.050847458,-0.965250965,-0.289703369,98.4206068
2006,-0.050556984,0.099337748,1.066012489,0.048262548,-0.079528809,98.42168051
2008,-0.028277635,0.100165563,1.068688671,-1.496138996,0.124237061,98.42136906
2010,-0.034275921,0.100165563,1.064228368,-1.254826255,0.215209961,98.42233219
2012,-0.04798629,0.094370861,1.079393399,-1.11003861,0.176605225,98.42456678
2014,-0.031705227,0.098509934,1.077609277,-0.916988417,0.071502686,98.42364789
2016,-0.035132819,0.104304636,1.071364853,-0.772200772,-0.012756348,98.42462403
2018,-0.050556984,0.095198675,1.082069581,-0.868725869,-0.045074463,98.42388112
2020,-0.027420737,0.10513245,1.078501338,-0.916988417,-0.032409668,98.42009954
2022,-0.040274207,0.100165563,1.083853702,-0.82046332,-0.011810303,98.41859907
2024,-0.066838046,0.096854305,1.096342551,-0.965250965,-0.004272461,98.41906653
2026,-0.048843188,0.110099338,1.092774309,-1.013513514,-0.016204834,98.41533752
2028,-0.05227078,0.102649007,1.092774309,-0.965250965,-0.024200439,98.41115249
2030,-0.055698372,0.100993377,1.103479037,-1.11003861,-0.020782471,98.40904706
2032,-0.037703513,0.108443709,1.100802855,-1.061776062,-0.00579834,98.41081522
2034,-0.041988003,0.11589404,1.108831401,-1.061776062,0.00894165,98.41038564
2036,-0.053127678,0.110927152,1.117752007,-1.206563707,0.015319824,98.41037779
2038,-0.04798629,0.109271523,1.120428189,-1.11003861,0.01449585,98.40596258
2040,-0.042844901,0.110099338,1.107047279,-1.061776062,0.008270264,98.40169864
2042,-0.055698372,0.110927152,1.115967886,-0.965250965,0.00579834,98.4000774
2044,-0.041988003,0.115066225,1.123996432,-0.916988417,0.009155273,98.39843812
2046,-0.042844901,0.116721854,1.112399643,-0.965250965,0.0078125,98.40328771
2048,-0.059982862,0.117549669,1.125780553,-0.965250965,0.005340576,98.40580435
2050,-0.049700086,0.118377483,1.130240856,-0.916988417,0.000183105,98.40726966
2052,-0.046272494,0.124172185,1.12221231,-0.916988417,-0.001312256,98.41109832
2054,-0.058269066,0.124172185,1.136485281,-0.916988417,-0.002746582,98.41121721
2056,-0.040274207,0.148178808,1.156110616,-1.013513514,-0.002838135,98.40997924
2058,-0.025706941,0.190397351,1.223907226,-1.11003861,-0.000823975,98.41381686
2060,-0.039417309,0.235099338,1.299732382,-1.061776062,-0.004455566,98.41127448
2062,-0.005141388,0.258278146,1.334522748,-0.965250965,-0.002349854,98.40791452
2064,-0.023993145,0.254966887,1.330062444,-1.013513514,0.000549316,98.40950055
2066,-0.039417309,0.271523179,1.18911686,-0.965250965,0.001983643,98.40705674
2068,-0.005141388,0.293874172,1.128456735,-0.965250965,0.005340576,98.40363277
2070,0.007712082,0.252483444,1.097234612,-1.013513514,0.004943848,98.40139883
2072,0.00428449,0.259933775,1.106155219,-0.965250965,0.005340576,98.39938591
2074,0.034275921,0.246688742,1.087421945,-0.916988417,0.002471924,98.39444496
2076,0.005141388,0.293046358,1.203389831,-1.013513514,0.002655029,98.39173148
2078,-0.129391602,0.42218543,2.071364853,-0.916988417,0.004638672,98.39343265
2080,0.036846615,0.864238411,1.520963426,-1.061776062,0.002929688,98.39824931
2082,0.57840617,1.807119205,0.034790366,-1.013513514,0.003112793,98.3958108
2084,1.094258783,0.771523179,-0.587867975,-0.916988417,-0.00112915,98.39700253
2086,0.659811482,-0.413907285,-0.682426405,-0.916988417,-0.000183105,98.40172082
2088,0.36075407,-0.60513245,0.074041035,-1.061776062,0.004058838,98.40164253
2090,0.11311054,-0.536423841,0.644959857,-0.965250965,0.004364014,98.3996528
2092,0.011139674,-0.414735099,0.930419269,-0.916988417,0.001983643,98.40062377
2094,-0.096829477,-0.261589404,1.076717217,-0.916988417,0.000762939,98.4010576
2096,-0.16966581,-0.197847682,1.160570919,-0.916988417,0.00112915,98.39735531
2098,-0.185089974,-0.189569536,1.187332739,-0.965250965,0.000366211,98.3978775
2100,-0.185089974,-0.198675497,1.194469224,-0.965250965,0.001220703,98.39436814
2102,-0.197943445,-0.179635762,1.205173952,-1.013513514,0.003814697,98.39195363
2104,-0.197943445,-0.188741722,1.214986619,-1.061776062,0.002929688,98.39224075
2106,-0.197086547,-0.188741722,1.209634255,-1.013513514,0.004180908,98.39537452
2108,-0.216795201,-0.183774834,1.212310437,-1.013513514,0.001220703,98.39755986
2110,-0.205655527,-0.19205298,1.223015165,-0.965250965,-0.001220703,98.39756805
2112,-0.197086547,-0.180463576,1.213202498,-0.965250965,0.002288818,98.40150787
2114,-0.200514139,-0.168874172,1.214986619,-1.061776062,0.004943848,98.40601503
2116,-0.187660668,-0.157284768,1.221231044,-0.916988417,0.003692627,98.40563859
2118,-0.179948586,-0.156456954,1.207850134,-0.868725869,0.000366211,98.40351456
2120,-0.192802057,-0.158940397,1.223015165,-0.916988417,6.10352E-05,98.40777823
2122,-0.179091688,-0.151490066,1.235504014,-0.916988417,0.002166748,98.40774151
2124,-0.156812339,-0.131622517,1.23015165,-0.965250965,0.004638672,98.41151481
2126,-0.170522708,-0.135761589,1.246208742,-0.916988417,0.003875732,98.40864719
2128,-0.159383033,-0.127483444,1.262265834,-1.013513514,-0.001403809,98.40479121
2130,-0.144815767,-0.126655629,1.266726137,-0.965250965,-0.000244141,98.40103436
2132,-0.148243359,-0.119205298,1.286351472,-1.013513514,-0.001403809,98.40177539
2134,-0.152527849,-0.130794702,1.316681534,-1.013513514,0.000946045,98.40143911
2136,-0.131105398,-0.130794702,1.335414808,-0.916988417,0.00189209,98.4001795
2138,-0.144815767,-0.153145695,1.363960749,-1.061776062,0.002349854,98.40272565
2140,-0.142245073,-0.169701987,1.397859054,-0.916988417,0.004638672,98.40228167
2142,-0.136246787,-0.194536424,1.422836753,-1.013513514,0.005584717,98.40434196
2144,-0.141388175,-0.214403974,1.460303301,-0.965250965,0.003417969,98.40863704
2146,-0.134532991,-0.236754967,1.492417484,-1.013513514,-0.000244141,98.41184169
2148,-0.109682948,-0.25,1.497769848,-1.061776062,0.00100708,98.40724017
2150,-0.115681234,-0.272350993,1.508474576,-0.965250965,0.003295898,98.41190205
2152,-0.092544987,-0.272350993,1.510258698,-1.11003861,0.004455566,98.41578174
2154,-0.065981148,-0.274834437,1.50044603,-1.013513514,0.001403809,98.41716947
2156,-0.06512425,-0.274006623,1.485280999,-0.916988417,0.000823975,98.41227902
2158,-0.039417309,-0.25910596,1.470115968,-0.965250965,0.003509521,98.4170516
2160,-0.010282776,-0.237582781,1.430865299,-0.868725869,0.003417969,98.41590689
2162,-0.00856898,-0.208609272,1.402319358,-1.11003861,0,98.41490347
2164,-0.013710368,-0.196192053,1.384478145,-0.965250965,-0.003417969,98.41500635
2166,0.009425878,-0.158940397,1.3514719,-1.013513514,-0.002838135,98.41552266
2168,-0.001713796,-0.135761589,1.322033898,-0.868725869,0.002838135,98.42011159
2170,0.000856898,-0.108443709,1.306868867,-1.013513514,0.006652832,98.42366561
2172,0.018851757,-0.079470199,1.28367529,-0.965250965,0.0050354,98.42343266
2174,0.002570694,-0.05794702,1.269402319,-1.013513514,0.004943848,98.42721082
2176,-0.000856898,-0.030629139,1.272078501,-1.013513514,0.002471924,98.4261096
2178,-0.001713796,0,1.260481713,-0.965250965,0.000549316,98.42160122
2180,-0.006855184,0.023178808,1.257805531,-0.916988417,0.001220703,98.41967557
2182,-0.017994859,0.03807947,1.25691347,-1.013513514,0.001586914,98.41787766
2184,0.001713796,0.068708609,1.248884924,-0.916988417,0.003234863,98.41749062
2186,-0.007712082,0.090231788,1.245316682,-0.916988417,0.003295898,98.41737196
2188,-0.011996572,0.107615894,1.251561106,-1.11003861,0.001586914,98.41943937
2190,0.005998286,0.120860927,1.251561106,-0.965250965,0.001525879,98.41811234
2192,0,0.125827815,1.256021409,-1.013513514,0.000762939,98.42252673
2194,-0.01285347,0.133278146,1.266726137,-1.013513514,0.002166748,98.42020861
2196,0.00856898,0.148178808,1.264049955,-0.916988417,0.003112793,98.42266257
2198,-0.002570694,0.147350993,1.264049955,-1.061776062,0.005584717,98.4267533
2200,-0.002570694,0.149006623,1.273862623,-0.965250965,-6.10352E-05,98.42759882
2202,0.011996572,0.163907285,1.27029438,-0.916988417,0.00112915,98.43166386
2204,0.016281063,0.179635762,1.279214987,-1.061776062,-6.10352E-05,98.42723069
2206,0.010282776,0.224337748,1.363068689,-0.965250965,0.000946045,98.42779805
2208,0.017137961,0.264072848,1.433541481,-0.916988417,0.003814697,98.42282767
2210,0.042844901,0.295529801,1.45941124,-1.013513514,0.001525879,98.41935923
2212,0.01285347,0.287251656,1.460303301,-1.061776062,0.003601074,98.41843414
2214,0.025706941,0.296357616,1.288135593,-1.061776062,0.003112793,98.4157686
2216,0.048843188,0.313741722,1.21587868,-1.061776062,0.001586914,98.41612174
2218,0.048843188,0.310430464,1.209634255,-1.061776062,0.003295898,98.4142378
2220,0.088260497,0.309602649,1.211418376,-1.061776062,0.003295898,98.41632414
2222,0.097686375,0.281456954,1.200713649,-0.916988417,0.003112793,98.41719475
2224,0.11739503,0.182119205,1.150758252,-1.11003861,0.002288818,98.41458666
2226,0.1302485,0.166390728,1.180196253,-0.965250965,0.00112915,98.41022725
2228,0.036846615,0.140728477,1.245316682,-1.061776062,0.002349854,98.40526094
2230,0.014567266,0.122516556,1.262265834,-0.965250965,0.004760742,98.40215167
2232,0.032562125,0.118377483,1.264942016,-0.965250965,0.004272461,98.40206371
2234,0.020565553,0.120033113,1.266726137,-1.061776062,0.00100708,98.4032284
2236,0.00856898,0.117549669,1.282783229,-1.013513514,-0.000366211,98.39945616
2238,0.026563839,0.125,1.281891169,-1.061776062,0.00177002,98.39578647
2240,0.018851757,0.127483444,1.287243533,-0.965250965,0.002532959,98.39392828
2242,0.00428449,0.125,1.290811775,-1.013513514,0.004364014,98.38980683
2244,0.026563839,0.133278146,1.289919715,-0.965250965,0.001983643,98.38889477
2246,0.022279349,0.129139073,1.285459411,-1.013513514,0.00100708,98.38671796
2248,0.002570694,0.124172185,1.295272079,-1.061776062,0.001983643,98.38802386
2250,0.022279349,0.136589404,1.2970562,-0.965250965,0.002746582,98.38522141
2252,0.028277635,0.144039735,1.298840321,-1.11003861,0.002349854,98.38676395
2254,0.006855184,0.142384106,1.307760928,-1.061776062,0.002075195,98.38369864
2256,0.025706941,0.152317881,1.305084746,-1.061776062,0.002471924,98.37964464
2258,0.032562125,0.158112583,1.304192685,-0.965250965,0.002929688,98.38382824
2260,0.010282776,0.157284768,1.313113292,-1.061776062,0.00177002,98.38441063
2262,0.035132819,0.16307947,1.320249777,-0.965250965,-0.000762939,98.38358705
2264,0.034275921,0.163907285,1.318465656,-0.965250965,-6.10352E-05,98.37969152
2266,0.022279349,0.169701987,1.330062444,-0.916988417,0.004943848,98.38021896
2268,0.041131105,0.174668874,1.328278323,-0.916988417,0.002929688,98.37633177
2270,0.044558698,0.177152318,1.315789474,-1.061776062,0.002655029,98.37369199
2272,0.027420737,0.184602649,1.33719893,-0.965250965,0.000823975,98.37007854
2274,0.048843188,0.179635762,1.330062444,-0.916988417,-0.00100708,98.36836094
2276,0.047129392,0.184602649,1.318465656,-0.916988417,0.001312256,98.36682536
2278,0.032562125,0.177980132,1.330062444,-1.013513514,0.004180908,98.37111292
2280,0.055698372,0.187913907,1.326494202,-0.916988417,0.0050354,98.37499609
2282,0.05655527,0.191225166,1.317573595,-0.965250965,0.002838135,98.37789653
2284,0.041131105,0.189569536,1.329170384,-0.965250965,0.000457764,98.37364124
2286,0.059125964,0.199503311,1.327386262,-0.965250965,0.002349854,98.37283921
2288,0.068551842,0.206125828,1.322033898,-0.965250965,0.001220703,98.37180645
2290,0.047129392,0.199503311,1.332738626,-0.965250965,0.007995605,98.37093576
2292,0.065981148,0.199503311,1.325602141,-0.965250965,-0.004821777,98.3756753
2294,0.083119109,0.217715232,1.32381802,-0.965250965,-0.119018555,98.37305425
2296,0.059982862,0.204470199,1.32381802,-1.061776062,0.135681152,98.36914002
2298,0.079691517,0.212748344,1.32471008,-0.965250965,0.19644165,98.37214031
2300,0.081405313,0.212748344,1.316681534,-0.868725869,-0.018554688,98.36758843
2302,0.062553556,0.207781457,1.330954505,-0.965250965,-0.584777832,98.372188
2304,0.073693231,0.211092715,1.325602141,-0.916988417,0.006164551,98.37520444
2306,0.083976007,0.215231788,1.322033898,-1.061776062,0.718109131,98.3798104
2308,0.068551842,0.211092715,1.331846566,-0.965250965,0.360870361,98.38246789
2310,0.084832905,0.214403974,1.334522748,-0.965250965,-0.298553467,98.38355021
2312,0.090831191,0.217715232,1.326494202,-0.965250965,-0.694519043,98.38844062
2314,0.077977721,0.209437086,1.333630687,-0.965250965,-0.42590332,98.38906618
2316,0.086546701,0.214403974,1.335414808,-1.061776062,0.355316162,98.38902506
2318,0.101113967,0.212748344,1.330954505,-1.013513514,0.661071777,98.38655548
2320,0.083119109,0.212748344,1.332738626,-1.061776062,0.352355957,98.38351509
2322,0.096829477,0.214403974,1.338983051,-1.013513514,0.200714111,98.38344243
2324,0.109682948,0.222682119,1.340767172,-1.061776062,-0.32144165,98.38555128
2326,0.083119109,0.216887417,1.334522748,-1.11003861,-0.551025391,98.39042746
2328,0.084832905,0.207781457,1.348795718,-1.013513514,-0.55847168,98.38877366
2330,0.102827763,0.219370861,1.3514719,-0.965250965,-0.219909668,98.38597531
2332,0.086546701,0.212748344,1.332738626,-1.11003861,0.130828857,98.38442812
2334,0.095115681,0.207781457,1.358608385,-1.158301158,0.581542969,98.38034418
2336,0.103684662,0.219370861,1.363960749,-1.013513514,0.65447998,98.38166019
2338,0.072836332,0.239238411,1.339875112,-1.11003861,0.407196045,98.38044207
2340,-0.00856898,0.455298013,1.779661017,-0.965250965,-0.149139404,98.3843157
2342,-0.035132819,0.584437086,2.354148082,-1.061776062,-0.265869141,98.38358098
2344,0.329048843,1.329470199,1.219446922,-0.965250965,-0.481964111,98.38748872
2346,0.954584404,1.908112583,0.246208742,-0.916988417,-0.407012939,98.38473101
2348,1.233933162,0.468543046,-0.388938448,-0.916988417,-0.093322754,98.38770031
2350,0.747215081,-0.344370861,-0.015165031,-0.868725869,0.207305908,98.39128312
2352,0.485861183,-0.369205298,0.680642284,-0.916988417,0.262695313,98.39055408
2354,0.278491859,-0.264072848,1.059768064,-0.916988417,0.307342529,98.39144268
2356,0.156812339,-0.105960265,1.156110616,-0.916988417,0.132751465,98.38735967
2358,0.101113967,0.031456954,1.231935772,-0.82046332,-0.023132324,98.3848655
2360,0.068551842,0.052152318,1.275646744,-0.868725869,-0.105163574,98.38580322
2362,0.046272494,0.030629139,1.288135593,-0.965250965,-0.101074219,98.38600901
2364,0.053984576,-0.007450331,1.300624442,-0.916988417,-0.041656494,98.39014955
2366,0.082262211,-0.109271523,1.234611954,-1.013513514,0.014099121,98.39178248
2368,0.011996572,-0.101821192,1.31043711,-0.868725869,0.031829834,98.391779
2370,-0.057412168,-0.134933775,1.354148082,-0.965250965,0.004364014,98.39312703
2372,-0.041988003,-0.132450331,1.346119536,-0.82046332,-0.024780273,98.38899064
2374,-0.068551842,-0.153145695,1.347011597,-0.916988417,-0.039550781,98.38439871
2376,-0.071122536,-0.152317881,1.362176628,-0.916988417,-0.024017334,98.38691435
2378,-0.051413882,-0.139900662,1.353256021,-0.916988417,-0.000640869,98.38515191
2380,-0.068551842,-0.142384106,1.355932203,-0.965250965,0.018768311,98.38081682
2382,-0.06512425,-0.133278146,1.375557538,-0.965250965,0.022491455,98.38504939
2384,-0.04798629,-0.117549669,1.370205174,-0.965250965,0.015899658,98.38059299
2386,-0.061696658,-0.124172185,1.390722569,-0.916988417,0.010742188,98.37627242
2388,-0.05227078,-0.116721854,1.412132025,-0.965250965,0.009979248,98.37700776
2390,-0.025706941,-0.095198675,1.416592328,-1.013513514,0.009521484,98.37639975
2392,-0.045415596,-0.102649007,1.441570027,-1.013513514,0.008575439,98.37167344
2394,-0.041988003,-0.093543046,1.468331847,-1.013513514,0.003417969,98.36717043
2396,-0.026563839,-0.083609272,1.48706512,-1.013513514,0.001220703,98.36455596
2398,-0.04798629,-0.101821192,1.518287244,-1.013513514,-0.003875732,98.36082897
2400,-0.049700086,-0.109271523,1.549509367,-1.061776062,-0.004364014,98.36213226
2402,-0.028277635,-0.106788079,1.573595004,-0.965250965,-0.004364014,98.3618964
2404,-0.04798629,-0.134933775,1.610169492,-1.11003861,-0.004577637,98.35799637
2406,-0.048843188,-0.158940397,1.641391615,-1.013513514,-0.003051758,98.35735069
2408,-0.035132819,-0.18294702,1.658340767,-1.061776062,0.002349854,98.36136947
2410,-0.043701799,-0.211092715,1.672613738,-1.11003861,0.002288818,98.36202782
2412,-0.032562125,-0.22102649,1.686886708,-1.061776062,0.00112915,98.36433425
2414,-0.00856898,-0.233443709,1.67528992,-1.11003861,0.002471924,98.36914385
2416,-0.005141388,-0.239238411,1.669045495,-1.013513514,0.003234863,98.37002594
2418,0.023136247,-0.234271523,1.655664585,-1.061776062,0.004943848,98.37005756
2420,0.059125964,-0.216887417,1.636931311,-1.061776062,0.004058838,98.37037349
2422,0.065981148,-0.204470199,1.617305977,-1.061776062,0.003814697,98.37143636
2424,0.074550129,-0.183774834,1.603925067,-1.061776062,0.00579834,98.37407954
2426,0.099400171,-0.156456954,1.574487065,-1.11003861,0.003112793,98.37508577
2428,0.092544987,-0.137417219,1.556645852,-1.11003861,0.003814697,98.37731163
2430,0.092544987,-0.100165563,1.542372881,-1.013513514,0.001403809,98.37666378
2432,0.115681234,-0.071192053,1.520963426,-1.013513514,0.000762939,98.37812903
2434,0.090831191,-0.046357616,1.510258698,-1.061776062,0.00189209,98.37489598
2436,0.068551842,-0.027317881,1.506690455,-1.061776062,0.001586914,98.37866074
2438,0.090831191,0.00910596,1.494201606,-1.013513514,0.002746582,98.37617765
2440,0.068551842,0.021523179,1.483496878,-1.013513514,0.000366211,98.37474249
2442,0.058269066,0.052980132,1.492417484,-0.965250965,0.001525879,98.37277594
2444,0.062553556,0.069536424,1.485280999,-1.013513514,0.005218506,98.37745354
2446,0.042844901,0.088576159,1.490633363,-1.013513514,0.003997803,98.37437646
2448,0.036846615,0.100993377,1.48706512,-0.965250965,0.001708984,98.3703551
2450,0.05655527,0.132450331,1.479036574,-0.916988417,0.002532959,98.372293
2452,0.050556984,0.146523179,1.475468332,-0.916988417,0.000946045,98.36825325
2454,0.040274207,0.158940397,1.490633363,-0.772200772,0.00177002,98.36524711
2456,0.058269066,0.16307947,1.481712756,-0.965250965,0.003234863,98.36631766
2458,0.044558698,0.167218543,1.48706512,-0.772200772,0.003051758,98.36841477
2460,0.041988003,0.168046358,1.497769848,-0.868725869,0.002166748,98.37232004
2462,0.059982862,0.178807947,1.490633363,-0.868725869,0.002288818,98.37334646
2464,0.054841474,0.182119205,1.495985727,-0.868725869,0.001403809,98.37697099
2466,0.043701799,0.179635762,1.502230152,-0.965250965,0.002655029,98.37873056
2468,0.065981148,0.194536424,1.495985727,-0.965250965,0.003234863,98.38158055
2470,0.053984576,0.181291391,1.501338091,-1.013513514,0.005126953,98.38194703
2472,0.038560411,0.188741722,1.514719001,-0.965250965,0.002288818,98.37699151
2474,0.06512425,0.197019868,1.506690455,-1.061776062,0.000183105,98.37397762
2476,0.048843188,0.188741722,1.49955397,-0.965250965,-0.00100708,98.37336486
2478,0.050556984,0.195364238,1.51382694,-1.013513514,0.000549316,98.37394778
2480,0.066838046,0.197847682,1.510258698,-1.013513514,0.00189209,98.37279907
2482,0.061696658,0.198675497,1.510258698,-0.916988417,0.004760742,98.37426766
2484,0.048843188,0.19205298,1.514719001,-1.061776062,0.002746582,98.3751244
2486,0.065981148,0.20281457,1.518287244,-1.061776062,0.002075195,98.37778771
2488,0.058269066,0.206125828,1.51293488,-0.965250965,0.000366211,98.37453406
2490,0.047129392,0.198675497,1.51293488,-1.11003861,0.002655029,98.3745652
2492,0.064267352,0.207781457,1.515611062,-1.013513514,0.003051758,98.37339195
2494,0.065981148,0.234271523,1.533452275,-1.11003861,0.001403809,98.37816393
2496,0.044558698,0.267384106,1.620874219,-1.11003861,0.001586914,98.38252477
2498,0.079691517,0.312086093,1.668153434,-1.11003861,0.002838135,98.38645214
2500,0.086546701,0.311258278,1.685994648,-1.158301158,0.001708984,98.38588744
2502,0.05227078,0.322019868,1.658340767,-1.061776062,0.001525879,98.3884027
2504,0.077120823,0.35513245,1.519179304,-1.11003861,0.004058838,98.39249673
2506,0.095972579,0.363410596,1.462979483,-1.158301158,0.002166748,98.39122991
2508,0.099400171,0.346854305,1.452274755,-1.061776062,0.000946045,98.38739282
2510,0.127677806,0.332781457,1.452274755,-1.158301158,0.000457764,98.38764403
2512,0.138817481,0.288907285,1.428189117,-1.061776062,0.000640869,98.38605528
2514,0.159383033,0.173013245,1.380909902,-1.061776062,0.002838135,98.38954931
2516,0.124250214,0.195364238,1.45941124,-1.013513514,0.002532959,98.38641162
2518,0.050556984,0.166390728,1.495093666,-1.013513514,0.002655029,98.38349907
2520,0.041131105,0.154801325,1.496877788,-1.11003861,0.000457764,98.38380338
2522,0.043701799,0.146523179,1.502230152,-1.11003861,0.008087158,98.37964624
2524,0.044558698,0.15397351,1.508474576,-1.158301158,-0.012756348,98.37705393
2526,0.036846615,0.153145695,1.518287244,-1.158301158,-0.048706055,98.37839946
2528,0.045415596,0.15397351,1.522747547,-1.013513514,0.084747314,98.37451022
2530,0.053127678,0.162251656,1.520071365,-1.061776062,0.102111816,98.37558366
2532,0.035132819,0.154801325,1.524531668,-1.061776062,-0.060150146,98.37948124
2534,0.053984576,0.165562914,1.52720785,-0.965250965,-0.337097168,98.3793881
2536,0.058269066,0.168046358,1.525423729,-0.916988417,0.120605469,98.37752317
2538,0.042844901,0.167218543,1.537912578,-1.013513514,0.457763672,98.38014458
2540,0.065981148,0.17384106,1.543264942,-1.013513514,0.007232666,98.38468984
2542,0.062553556,0.178807947,1.539696699,-0.965250965,-0.389343262,98.38614868
2544,0.05227078,0.180463576,1.55396967,-0.916988417,-0.258117676,98.38600187
2546,0.072836332,0.187086093,1.554861731,-0.916988417,0.048248291,98.38538369
2548,0.075407027,0.192880795,1.554861731,-0.916988417,0.380889893,98.38224751
2550,0.071979434,0.187913907,1.561106155,-0.965250965,0.37020874,98.38167886
2552,0.076263925,0.187913907,1.561998216,-0.965250965,0.072174072,98.38156005
2554,0.083976007,0.193708609,1.559322034,-0.965250965,-0.320892334,98.38517137
2556,0.067694944,0.186258278,1.558429973,-1.013513514,-0.464324951,98.38733593
2558,0.080548415,0.197019868,1.566458519,-0.868725869,-0.295043945,98.38853925
2560,0.094258783,0.197847682,1.557537913,-0.916988417,0.025421143,98.38443699
2562,0.077120823,0.195364238,1.564674398,-0.916988417,0.327301025,98.38055461
2564,0.089974293,0.203642384,1.565566459,-0.868725869,0.442687988,98.3813105
2566,0.097686375,0.206953642,1.55396967,-0.916988417,0.326324463,98.38092707
2568,0.087403599,0.213576159,1.560214095,-1.013513514,0.059387207,98.38138157
2570,0.086546701,0.204470199,1.559322034,-0.965250965,-0.22354126,98.37676169
2572,0.109682948,0.225165563,1.555753791,-1.013513514,-0.370849609,98.37755455
2574,0.095972579,0.222682119,1.55396967,-0.965250965,-0.312805176,98.37884433
2576,0.105398458,0.228476821,1.553077609,-1.061776062,-0.109741211,98.3786636
2578,0.122536418,0.232615894,1.545049063,-1.013513514,0.100189209,98.37526887
2580,0.103684662,0.23013245,1.546833185,-1.11003861,0.21005249,98.37781266
2582,0.107969152,0.229304636,1.545941124,-1.158301158,0.187286377,98.38074762
2584,0.114824336,0.227649007,1.541480821,-1.061776062,0.090087891,98.37866131
2586,0.105398458,0.231788079,1.537020517,-1.254826255,-0.004943848,98.3787374
2588,0.120822622,0.237582781,1.547725245,-1.061776062,-0.044616699,98.37611732
2590,0.131962296,0.237582781,1.547725245,-1.158301158,-0.03604126,98.37304417
2592,0.112253642,0.235099338,1.541480821,-1.206563707,-0.013214111,98.37613114
2594,0.124250214,0.243377483,1.544157003,-1.061776062,-0.005218506,98.37179787
2596,0.134532991,0.243377483,1.557537913,-1.11003861,-0.014373779,98.3687565
2598,0.111396744,0.258278146,1.546833185,-1.013513514,-0.022949219,98.37350431
2600,0.127677806,0.272350993,1.537020517,-1.061776062,-0.021606445,98.37425522
2602,0.071122536,0.44205298,1.760927743,-1.013513514,-0.010925293,98.37508735
2604,-0.028277635,0.592715232,2.529884032,-1.11003861,0.007110596,98.37958757
2606,0.272493573,1.104304636,1.801962533,-1.013513514,0.01473999,98.37558796
2608,0.857754927,1.959437086,0.429973238,-1.061776062,0.0128479,98.3793753
2610,1.277634961,0.877483444,-0.165031222,-0.965250965,0.00769043,98.38328981
2612,0.784918595,-0.294701987,-0.247100803,-1.013513514,0.007629395,98.38043018
2614,0.53041988,-0.414735099,0.545941124,-0.965250965,0.006561279,98.3770997
2616,0.29991431,-0.349337748,1.059768064,-1.061776062,0.007507324,98.37856096
2618,0.184233076,-0.233443709,1.32471008,-1.11003861,0.00692749,98.37536439
2620,0.091688089,-0.066225166,1.473684211,-1.013513514,0.002288818,98.37152989
2622,0.017994859,-0.005794702,1.536128457,-1.013513514,-0.00189209,98.37018323
2624,0.001713796,-0.000827815,1.559322034,-0.916988417,-0.002288818,98.36920698
2626,0.006855184,0.000827815,1.562890277,-0.916988417,-0.002929688,98.36510508
2628,-0.013710368,-0.008278146,1.561998216,-1.013513514,-0.000640869,98.36694276
2630,-0.01285347,-0.004139073,1.570026762,-0.916988417,-0.000183105,98.3674117
2632,0.00856898,-0.002483444,1.561998216,-0.965250965,-0.000244141,98.37227129
2634,-0.003427592,0.004139073,1.557537913,-1.013513514,-0.00100708,98.36939879
2636,-0.005998286,0.029801325,1.598572703,-0.965250965,0.001586914,98.37358869
2638,0.01285347,0.079470199,1.683318466,-0.868725869,0.002746582,98.37524031
2640,0.01285347,0.122516556,1.719000892,-1.061776062,0.003051758,98.37767509
2642,0.031705227,0.119205298,1.735950045,-0.965250965,0.002655029,98.37645967
2644,0.021422451,0.129139073,1.645851918,-1.013513514,0.00189209,98.37620735
2646,0.029991431,0.162251656,1.518287244,-1.061776062,0.001403809,98.37226997
2648,0.04798629,0.17218543,1.482604817,-1.11003861,0.004943848,98.37610781
2650,0.088260497,0.177980132,1.478144514,-1.013513514,0.000244141,98.37555884
2652,0.089117395,0.16307947,1.496877788,-1.158301158,0.000457764,98.37724112
2654,0.106255356,0.125827815,1.503122212,-1.061776062,0.000366211,98.37952328
2656,0.151670951,0.034768212,1.465655665,-1.013513514,0.002532959,98.37737971
2658,0.073693231,0.01986755,1.564674398,-1.061776062,0.003997803,98.37831658
2660,0.021422451,-0.023178808,1.617305977,-1.013513514,0.002929688,98.37702188
2662,0.031705227,-0.038907285,1.634255129,-1.061776062,0.001525879,98.37997826
2664,0.018851757,-0.065397351,1.666369313,-1.061776062,6.10352E-05,98.37571361
2666,0.01285347,-0.089403974,1.715432649,-1.11003861,0.000640869,98.38064098
2668,0.021422451,-0.117549669,1.743978591,-1.158301158,0.002532959,98.38340128
2670,0.010282776,-0.14486755,1.780553078,-1.061776062,0.002929688,98.37847498
2672,0.011139674,-0.170529801,1.807314897,-1.061776062,0.001525879,98.38236446
2674,0.044558698,-0.183774834,1.81088314,-1.013513514,0.00112915,98.38600571
2676,0.04798629,-0.20281457,1.809099019,-1.013513514,0.002838135,98.38798165
2678,0.055698372,-0.211092715,1.809991079,-1.158301158,0.001312256,98.39183157
2680,0.092544987,-0.199503311,1.796610169,-1.013513514,0,98.39148802
2682,0.095115681,-0.207781457,1.777876896,-1.11003861,0.001312256,98.3902036
2684,0.102827763,-0.190397351,1.772524532,-1.013513514,0.003234863,98.38603382
2686,0.143101971,-0.164735099,1.743978591,-1.11003861,0.004272461,98.391006
2688,0.139674379,-0.149006623,1.727921499,-0.916988417,-0.003234863,98.3947043
2690,0.137960583,-0.119205298,1.724353256,-1.11003861,-0.000457764,98.38970501
2692,0.154241645,-0.08692053,1.70205174,-1.11003861,0.003051758,98.39150477
2694,0.149957155,-0.055463576,1.681534344,-1.11003861,0.004760742,98.39305357
2696,0.133676093,-0.024006623,1.67618198,-1.11003861,0.005584717,98.3921717
2698,0.148243359,0.014072848,1.659232828,-1.11003861,0.00100708,98.39193539
2700,0.139674379,0.039735099,1.654772525,-1.061776062,-0.002166748,98.3908181
2702,0.124250214,0.060430464,1.657448707,-1.013513514,-0.000640869,98.39033867
2704,0.141388175,0.091887417,1.640499554,-1.013513514,0.00177002,98.38560627
2706,0.144815767,0.122516556,1.630686887,-1.061776062,0.002655029,98.38485913
2708,0.125107112,0.130794702,1.63514719,-1.013513514,-0.000366211,98.38091718
2710,0.146529563,0.160596026,1.629794826,-1.013513514,-0.000183105,98.3763483
2712,0.137103685,0.169701987,1.620874219,-0.965250965,0.001983643,98.37690952
2714,0.122536418,0.182119205,1.633363069,-1.061776062,0.003295898,98.37802239
2716,0.140531277,0.189569536,1.630686887,-0.868725869,0.004455566,98.38041071
2718,0.139674379,0.20115894,1.625334523,-1.013513514,0.003601074,98.3779799
2720,0.120822622,0.206953642,1.630686887,-0.965250965,0.003417969,98.38024249
2722,0.139674379,0.219370861,1.629794826,-1.013513514,0.003112793,98.38237502
2724,0.134532991,0.220198675,1.625334523,-0.916988417,-0.002075195,98.38241267
2726,0.119108826,0.214403974,1.632471008,-1.013513514,-0.002288818,98.38634036
2728,0.143101971,0.225165563,1.627118644,-0.916988417,0.0050354,98.38913422
2730,0.148243359,0.233443709,1.630686887,-0.868725869,0.006347656,98.38908282
2732,0.129391602,0.230960265,1.634255129,-1.013513514,0.006103516,98.39169789
2734,0.143101971,0.235099338,1.63514719,-0.82046332,0.001220703,98.39336834
2736,0.140531277,0.235099338,1.628902765,-0.965250965,-0.001525879,98.39814946
2738,0.1302485,0.235099338,1.640499554,-0.916988417,-0.001312256,98.39432017
2740,0.144815767,0.239238411,1.636931311,-1.013513514,0.000946045,98.3980134
2742,0.142245073,0.242549669,1.634255129,-0.965250965,0.004455566,98.39869195
2744,0.123393316,0.244205298,1.642283675,-0.916988417,0.005706787,98.39489346
2746,0.131962296,0.245033113,1.644067797,-1.061776062,0.002655029,98.39959676
2748,0.133676093,0.244205298,1.633363069,-0.965250965,0.002838135,98.40299642
2750,0.119108826,0.235927152,1.646743979,-1.013513514,0.002288818,98.39861959
2752,0.138817481,0.242549669,1.640499554,-0.965250965,0.002166748,98.39640032
2754,0.144815767,0.242549669,1.639607493,-1.013513514,0.002288818,98.39549662
2756,0.12167952,0.230960265,1.6485281,-1.061776062,0.002288818,98.3967647
2758,0.133676093,0.247516556,1.646743979,-0.965250965,0.001403809,98.40095573
2760,0.135389889,0.237582781,1.650312221,-0.965250965,0,98.40010725
2762,0.110539846,0.240066225,1.656556646,-1.254826255,-0.000640869,98.40222225
2764,0.1302485,0.238410596,1.655664585,-1.013513514,0.002075195,98.406931
2766,0.140531277,0.241721854,1.655664585,-0.965250965,0.004943848,98.40628572
2768,0.111396744,0.235099338,1.650312221,-1.158301158,0.00177002,98.40763954
2770,0.122536418,0.24089404,1.650312221,-1.11003861,0.001220703,98.41165509
2772,0.129391602,0.236754967,1.6485281,-1.013513514,0.001525879,98.41537093
2774,0.114824336,0.230960265,1.66190901,-0.965250965,0.001586914,98.41179809
2776,0.122536418,0.233443709,1.661016949,-1.013513514,0.003814697,98.40880406
2778,0.131105398,0.229304636,1.650312221,-1.061776062,0.003997803,98.41001334
2780,0.10454156,0.229304636,1.659232828,-1.11003861,0.002838135,98.41276363
2782,0.123393316,0.261589404,1.674397859,-0.916988417,0.002838135,98.41023174
2784,0.119108826,0.290562914,1.747546833,-0.965250965,0.001403809,98.40892627
2786,0.10454156,0.328642384,1.813559322,-0.916988417,0.002166748,98.40733724
2788,0.139674379,0.338576159,1.842997324,-0.965250965,0.001312256,98.40690114
2790,0.129391602,0.355960265,1.818019625,-1.013513514,0.001586914,98.40360937
2792,0.111396744,0.363410596,1.681534344,-1.013513514,0.003509521,98.40606543
2794,0.136246787,0.377483444,1.619090098,-1.013513514,0.001220703,98.40204521
2796,0.161953728,0.365066225,1.583407672,-0.965250965,-0.000183105,98.40594791
2798,0.157669237,0.350993377,1.603925067,-0.916988417,0.000946045,98.40176885
2800,0.185089974,0.316225166,1.586083854,-1.013513514,0.002746582,98.40458407
2802,0.220222793,0.216887417,1.523639607,-0.965250965,0.004638672,98.40807085
2804,0.166238218,0.200331126,1.589652096,-0.965250965,0.002349854,98.40757963
2806,0.095972579,0.19205298,1.642283675,-0.916988417,0.001708984,98.40863288
2808,0.095972579,0.171357616,1.638715433,-1.013513514,0,98.40717758
2810,0.071122536,0.154801325,1.652988403,-1.013513514,0.004455566,98.40976853
2812,0.071979434,0.16307947,1.657448707,-0.965250965,0.003112793,98.41066294
2814,0.080548415,0.166390728,1.653880464,-0.916988417,0.002166748,98.41177864
2816,0.058269066,0.160596026,1.66280107,-0.868725869,0.000244141,98.41521035
2818,0.062553556,0.162251656,1.666369313,-1.061776062,0.000640869,98.41478023
2820,0.076263925,0.160596026,1.658340767,-0.868725869,0,98.41860813
2822,0.059125964,0.154801325,1.66190901,-1.013513514,0.003417969,98.41854385
2824,0.068551842,0.16307947,1.660124888,-0.868725869,0.002075195,98.41977236
2826,0.078834619,0.17384106,1.656556646,-0.916988417,0.004364014,98.42039401
2828,0.05655527,0.159768212,1.669937556,-0.916988417,0.001403809,98.42261062
2830,0.067694944,0.165562914,1.669937556,-0.916988417,0.002655029,98.42307832
2832,0.075407027,0.169701987,1.665477252,-0.868725869,0.000183105,98.42592273
2834,0.055698372,0.164735099,1.672613738,-0.82046332,0.003509521,98.42538626
2836,0.061696658,0.167218543,1.669937556,-0.965250965,0.002166748,98.42950534
2838,0.072836332,0.168874172,1.668153434,-0.965250965,0.003692627,98.42537121
2840,0.049700086,0.161423841,1.666369313,-0.868725869,0.000823975,98.43036058
2842,0.053127678,0.161423841,1.661016949,-0.965250965,0.000366211,98.43263639
2844,0.066838046,0.159768212,1.655664585,-0.916988417,0.001403809,98.43322046
2846,0.049700086,0.159768212,1.652096343,-1.11003861,0.003997803,98.4296487
2848,0.053984576,0.152317881,1.655664585,-1.11003861,0.0050354,98.43302507
2850,0.068551842,0.16307947,1.649420161,-1.11003861,0.004760742,98.43527754
2852,0.050556984,0.154801325,1.643175736,-1.158301158,0.000549316,98.43445134
2854,0.059125964,0.149006623,1.645851918,-0.965250965,-0.001312256,98.43218305
2856,0.070265638,0.154801325,1.643175736,-1.061776062,0.000457764,98.43033012
2858,0.053984576,0.165562914,1.622658341,-1.158301158,0.005126953,98.43114708
2860,0.059982862,0.17384106,1.617305977,-1.061776062,0.003875732,98.43304067
2862,0.019708655,0.32615894,1.763603925,-1.061776062,0.017425537,98.43667934
2864,-0.089974293,0.511589404,2.503122212,-1.013513514,-0.107818604,98.43378793
2866,0.149957155,0.933774834,1.975022302,-1.206563707,0.079803467,98.43385545
2868,0.687232219,1.902317881,0.619982159,-1.013513514,0.196136475,98.43310594
2870,1.18680377,0.956125828,0.084745763,-0.965250965,0.078582764,98.43050294
2872,0.764353042,-0.335264901,-0.205173952,-1.013513514,-0.479888916,98.43307818
2874,0.502999143,-0.543874172,0.536128457,-0.965250965,-0.213806152,98.43599729
2876,0.263067695,-0.490066225,1.046387154,-1.061776062,0.603485107,98.43485609
2878,0.146529563,-0.363410596,1.332738626,-1.013513514,0.614624023,98.43303664
2880,0.05655527,-0.193708609,1.474576271,-1.061776062,-0.207702637,98.43284589
2882,-0.020565553,-0.116721854,1.529884032,-1.061776062,-0.594116211,98.43063095
2884,-0.029134533,-0.111754967,1.561998216,-0.965250965,-0.596862793,98.42721131
2886,-0.027420737,-0.115066225,1.565566459,-1.013513514,0.231536865,98.42616539
2888,-0.048843188,-0.110099338,1.555753791,-1.013513514,0.635009766,98.42401995
2890,-0.054841474,-0.121688742,1.564674398,-0.916988417,0.434173584,98.42145046
2892,-0.035132819,-0.119205298,1.55396967,-0.916988417,0.255767822,98.42287565
2894,-0.057412168,-0.129139073,1.544157003,-0.772200772,-0.15512085,98.42744489
2896,-0.05655527,-0.129966887,1.543264942,-0.916988417,-0.504760742,98.42430825
2898,-0.041131105,-0.126655629,1.528991971,-1.061776062,-0.598510742,98.42840342
2900,-0.053127678,-0.133278146,1.520963426,-0.916988417,-0.211700439,98.42909082
2902,-0.05227078,-0.129966887,1.523639607,-0.965250965,0.027648926,98.42602598
2904,-0.035132819,-0.123344371,1.51382694,-1.013513514,0.50390625,98.42806837
2906,-0.047129392,-0.127483444,1.516503122,-1.061776062,0.643035889,98.42958416
2908,-0.037703513,-0.120860927,1.524531668,-0.965250965,0.455841064,98.42790313
2910,-0.017994859,-0.11589404,1.52720785,-0.868725869,0.029815674,98.42811882
2912,-0.025706941,-0.115066225,1.533452275,-0.965250965,-0.343688965,98.42336645
2914,-0.025706941,-0.113410596,1.545941124,-0.965250965,-0.557769775,98.41858918
2916,0.001713796,-0.106788079,1.545049063,-0.916988417,-0.344848633,98.42157443
2918,-0.002570694,-0.114238411,1.556645852,-0.916988417,-0.369903564,98.41765255
2920,-0.007712082,-0.124172185,1.579839429,-0.965250965,0.195678711,98.41954062
2922,0.006855184,-0.132450331,1.592328278,-1.013513514,0.289611816,98.42229088
2924,-0.00428449,-0.154801325,1.62176628,-0.916988417,0.262817383,98.42520582
2926,-0.010282776,-0.183774834,1.659232828,-0.965250965,0.182220459,98.42730051
2928,0.00428449,-0.196192053,1.680642284,-0.965250965,0.030395508,98.43176589
2930,0,-0.197847682,1.751115076,-1.013513514,-0.087219238,98.42974608
2932,-0.003427592,-0.187086093,1.874219447,-0.965250965,-0.11138916,98.43470429
2934,0.041131105,-0.168874172,1.925066905,-0.965250965,-0.06149292,98.43524877
2936,0.043701799,-0.200331126,1.929527208,-1.158301158,0.002532959,98.43680965
2938,0.031705227,-0.216059603,1.826940232,-1.061776062,0.031829834,98.44126314
2940,0.071979434,-0.189569536,1.687778769,-0.868725869,0.016967773,98.43850951
2942,0.088260497,-0.187086093,1.615521855,-1.013513514,-0.017028809,98.44332469
2944,0.120822622,-0.182119205,1.595896521,-0.916988417,-0.036987305,98.44003091
2946,0.158526135,-0.174668874,1.574487065,-0.916988417,-0.031280518,98.44444151
2948,0.174807198,-0.19205298,1.544157003,-0.965250965,-0.009613037,98.44901111
2950,0.198800343,-0.258278146,1.482604817,-0.965250965,0.013214111,98.44576126
2952,0.179091688,-0.234271523,1.517395183,-0.965250965,0.021606445,98.44130436
2954,0.116538132,-0.247516556,1.522747547,-1.013513514,0.017913818,98.43898644
2956,0.103684662,-0.226821192,1.51382694,-1.11003861,0.010559082,98.43944654
2958,0.115681234,-0.198675497,1.498661909,-0.965250965,0.006103516,98.4421984
2960,0.103684662,-0.174668874,1.493309545,-1.061776062,0.008758545,98.443236
2962,0.088260497,-0.150662252,1.495093666,-1.013513514,0.011627197,98.44139696
2964,0.102827763,-0.124172185,1.487957181,-1.013513514,0.008575439,98.44073048
2966,0.097686375,-0.107615894,1.481712756,-1.061776062,0.000946045,98.44415828
2968,0.089974293,-0.088576159,1.48706512,-0.965250965,-0.003234863,98.4454196
2970,0.106255356,-0.065397351,1.484388938,-1.061776062,-0.007415771,98.44314508
2972,0.100257069,-0.051324503,1.482604817,-1.061776062,-0.0050354,98.44329043
2974,0.089117395,-0.043874172,1.493309545,-1.061776062,-0.002288818,98.44717443
2976,0.109682948,-0.025662252,1.487957181,-0.965250965,-0.000549316,98.44391739
2978,0.101113967,-0.020695364,1.48617306,-1.013513514,0.000457764,98.44711807
2980,0.084832905,-0.014072848,1.498661909,-0.916988417,0.000183105,98.44392999
2982,0.107969152,0.003311258,1.494201606,-0.916988417,-0.000457764,98.43990263
2984,0.103684662,0.005794702,1.490633363,-1.013513514,-0.000946045,98.43521578
2986,0.084832905,0.004966887,1.497769848,-1.061776062,0.001220703,98.43031754
2988,0.098543273,0.014900662,1.495093666,-1.061776062,0.005218506,98.43499201
2990,0.100257069,0.020695364,1.48706512,-1.013513514,0.006469727,98.43887238
2992,0.092544987,0.022350993,1.495093666,-0.965250965,0.004058838,98.43436923
2994,0.114824336,0.029801325,1.489741302,-1.013513514,0.00177002,98.4360713
2996,0.109682948,0.027317881,1.480820696,-1.013513514,0.003417969,98.44083752
2998,0.094258783,0.022350993,1.485280999,-1.11003861,0.002532959,98.43804018
3000,0.119108826,0.028145695,1.484388938,-1.254826255,0.003509521,98.43388076
3002,0.12167952,0.028145695,1.473684211,-1.061776062,0.001403809,98.43246941
3004,0.106255356,0.025662252,1.476360393,-1.11003861,0.003051758,98.43480125
3006,0.120822622,0.025662252,1.471900089,-1.11003861,0.003234863,98.43582269
3008,0.123393316,0.033112583,1.462979483,-1.061776062,0.001983643,98.4353364
3010,0.119108826,0.027317881,1.468331847,-1.061776062,0.000640869,98.43946443
3012,0.134532991,0.03807947,1.462979483,-1.061776062,6.10352E-05,98.43449621
3014,0.132819195,0.033940397,1.450490633,-1.158301158,0.000549316,98.434597
3016,0.12167952,0.032284768,1.454950937,-1.158301158,0.003997803,98.43104161
3018,0.145672665,0.038907285,1.450490633,-1.061776062,0.001220703,98.43108811
3020,0.143958869,0.039735099,1.438893845,-1.158301158,0.001220703,98.43177026
3022,0.133676093,0.032284768,1.445138269,-1.206563707,0.002075195,98.43319196
3024,0.152527849,0.03807947,1.444246209,-1.013513514,0.003112793,98.4302613
3026,0.156812339,0.044701987,1.433541481,-1.061776062,0.002929688,98.42866317
3028,0.143101971,0.039735099,1.438893845,-1.013513514,0.003692627,98.42693791
3030,0.161096829,0.045529801,1.441570027,-0.965250965,0.001586914,98.42808756
3032,0.160239931,0.042218543,1.433541481,-1.061776062,-0.000183105,98.42899946
3034,0.145672665,0.040562914,1.441570027,-0.965250965,0.000549316,98.4308787
3036,0.161953728,0.043874172,1.437109723,-1.11003861,0.000823975,98.42754308
3038,0.164524422,0.041390728,1.434433541,-1.206563707,0.003875732,98.42906535
3040,0.155955441,0.041390728,1.438001784,-1.11003861,0.004058838,98.43175173
3042,0.170522708,0.046357616,1.438001784,-1.061776062,0.003997803,98.43070939
3044,0.17823479,0.046357616,1.428189117,-0.965250965,0.002532959,98.42967203
3046,0.163667524,0.042218543,1.43175736,-1.013513514,0.000183105,98.43159324
3048,0.173093402,0.045529801,1.439785905,-0.965250965,0.000946045,98.42896997
3050,0.172236504,0.046357616,1.428189117,-0.965250965,0.003692627,98.43345879
3052,0.155955441,0.038907285,1.43264942,-1.061776062,0.002655029,98.42981632
3054,0.177377892,0.048013245,1.433541481,-1.11003861,0.002746582,98.42993147
3056,0.177377892,0.052980132,1.423728814,-1.061776062,-0.00100708,98.42534578
3058,0.162810626,0.052980132,1.428189117,-1.11003861,0.001220703,98.42346988
3060,0.16966581,0.054635762,1.430865299,-1.013513514,0.003417969,98.42168758
3062,0.180805484,0.058774834,1.421052632,-0.965250965,0.002471924,98.4261708
3064,0.166238218,0.056291391,1.424620874,-1.061776062,0.002075195,98.42324421
3066,0.177377892,0.062086093,1.427297056,-1.013513514,0.00112915,98.42313764
3068,0.181662382,0.063741722,1.422836753,-1.013513514,-0.000549316,98.42258439
3070,0.171379606,0.065397351,1.425512935,-0.965250965,0.000549316,98.42579287
3072,0.181662382,0.102649007,1.460303301,-0.916988417,0.003509521,98.42096768
3074,0.18251928,0.152317881,1.552185549,-1.013513514,0.005218506,98.42385283
